BEGIN_SCAN_DATA
	FORMAT=CC-Export V1.9                  
	FILE_CREATION_DATE=
	LAST_MODIFIED=11-Jan-2023 11:56:47
	BEGIN_SCAN  1
		TASK_NAME=RayStation Phantom Profiles & PDDs
		PROGRAM=RayStation
		COMMENT=RayStation Script Export
		MEAS_DATE=11-Jan-2023 11:56:47
		LINAC=RayStation
		MODALITY=X
		ISOCENTER=1000.00
		INPLANE_AXIS=Y
		CROSSPLANE_AXIS=X
		DEPTH_AXIS=Z
		INPLANE_AXIS_DIR=GUN_TARGET
		CROSSPLANE_AXIS_DIR=LEFT_RIGHT
		DEPTH_AXIS_DIR=UP_DOWN
		ENERGY=6.3
		NOMINAL_DMAX=20.00
		SSD=1000.0
		SCD=1000.00
		WEDGE_ANGLE=0.00
		FIELD_INPLANE=150.0
		FIELD_CROSSPLANE=100.0
		FIELD_TYPE=IRREGULAR
		GANTRY=0.00
		GANTRY_UPRIGHT_POSITION=0
		GANTRY_ROTATION=CW
		COLL_ANGLE=0.00
		REF_FIELD_DEPTH=50.00
		REF_FIELD_DEFINED=ISOCENTER
		FIELD_INPLANE=150.0
		FIELD_CROSSPLANE=100.0
		SCAN_CURVETYPE=INPLANE_PROFILE
		SCAN_DEPTH=200.0
		SCAN_OFFAXIS_INPLANE=0.00
		SCAN_OFFAXIS_CROSSPLANE=0.00
		SCAN_ANGLE=0.00
		SCAN_DIAGONAL=NOT_DIAGONAL
		SCAN_DIRECTION=NEGATIVE
		MEAS_MEDIUM=WATER
		MEAS_UNIT=cGy
		INCLINATION_ANGLE=0.00
		PRESSURE=1013.20
		TEMPERATURE=20.00
		NORM_TEMPERATURE=20.00
		CORRECTION_FACTOR=1.0000;
		BEGIN_DATA
			-5.0		1.2441e-03		1.0000e+00
			-4.95		1.2668e-03		1.0000e+00
			-4.9		1.2894e-03		1.0000e+00
			-4.85		1.3121e-03		1.0000e+00
			-4.8		1.3348e-03		1.0000e+00
			-4.75		1.3431e-03		1.0000e+00
			-4.7		1.3515e-03		1.0000e+00
			-4.65		1.3599e-03		1.0000e+00
			-4.6		1.3683e-03		1.0000e+00
			-4.55		1.3955e-03		1.0000e+00
			-4.5		1.4227e-03		1.0000e+00
			-4.45		1.4498e-03		1.0000e+00
			-4.4		1.4770e-03		1.0000e+00
			-4.35		1.4886e-03		1.0000e+00
			-4.3		1.5001e-03		1.0000e+00
			-4.25		1.5117e-03		1.0000e+00
			-4.2		1.5232e-03		1.0000e+00
			-4.15		1.5477e-03		1.0000e+00
			-4.1		1.5722e-03		1.0000e+00
			-4.05		1.5966e-03		1.0000e+00
			-4.0		1.6211e-03		1.0000e+00
			-3.95		1.6400e-03		1.0000e+00
			-3.9		1.6590e-03		1.0000e+00
			-3.85		1.6779e-03		1.0000e+00
			-3.8		1.6969e-03		1.0000e+00
			-3.75		1.7159e-03		1.0000e+00
			-3.7		1.7349e-03		1.0000e+00
			-3.65		1.7540e-03		1.0000e+00
			-3.6		1.7730e-03		1.0000e+00
			-3.55		1.8017e-03		1.0000e+00
			-3.5		1.8303e-03		1.0000e+00
			-3.45		1.8590e-03		1.0000e+00
			-3.4		1.8877e-03		1.0000e+00
			-3.35		1.9010e-03		1.0000e+00
			-3.3		1.9144e-03		1.0000e+00
			-3.25		1.9277e-03		1.0000e+00
			-3.2		1.9411e-03		1.0000e+00
			-3.15		1.9778e-03		1.0000e+00
			-3.1		2.0145e-03		1.0000e+00
			-3.05		2.0512e-03		1.0000e+00
			-3.0		2.0879e-03		1.0000e+00
			-2.95		2.1000e-03		1.0000e+00
			-2.9		2.1120e-03		1.0000e+00
			-2.85		2.1241e-03		1.0000e+00
			-2.8		2.1361e-03		1.0000e+00
			-2.75		2.1759e-03		1.0000e+00
			-2.7		2.2158e-03		1.0000e+00
			-2.65		2.2556e-03		1.0000e+00
			-2.6		2.2954e-03		1.0000e+00
			-2.55		2.3119e-03		1.0000e+00
			-2.5		2.3284e-03		1.0000e+00
			-2.45		2.3449e-03		1.0000e+00
			-2.4		2.3614e-03		1.0000e+00
			-2.35		2.3967e-03		1.0000e+00
			-2.3		2.4320e-03		1.0000e+00
			-2.25		2.4673e-03		1.0000e+00
			-2.2		2.5026e-03		1.0000e+00
			-2.15		2.5299e-03		1.0000e+00
			-2.1		2.5572e-03		1.0000e+00
			-2.05		2.5845e-03		1.0000e+00
			-2.0		2.6118e-03		1.0000e+00
			-1.95		2.6392e-03		1.0000e+00
			-1.9		2.6665e-03		1.0000e+00
			-1.85		2.6939e-03		1.0000e+00
			-1.8		2.7213e-03		1.0000e+00
			-1.75		2.7622e-03		1.0000e+00
			-1.7		2.8031e-03		1.0000e+00
			-1.65		2.8441e-03		1.0000e+00
			-1.6		2.8850e-03		1.0000e+00
			-1.55		2.9037e-03		1.0000e+00
			-1.5		2.9223e-03		1.0000e+00
			-1.45		2.9410e-03		1.0000e+00
			-1.4		2.9597e-03		1.0000e+00
			-1.35		3.0123e-03		1.0000e+00
			-1.3		3.0650e-03		1.0000e+00
			-1.25		3.1176e-03		1.0000e+00
			-1.2		3.1702e-03		1.0000e+00
			-1.15		3.1869e-03		1.0000e+00
			-1.1		3.2036e-03		1.0000e+00
			-1.05		3.2203e-03		1.0000e+00
			-1.0		3.2369e-03		1.0000e+00
			-0.95		3.2936e-03		1.0000e+00
			-0.9		3.3503e-03		1.0000e+00
			-0.85		3.4069e-03		1.0000e+00
			-0.8		3.4636e-03		1.0000e+00
			-0.75		3.4864e-03		1.0000e+00
			-0.7		3.5092e-03		1.0000e+00
			-0.65		3.5320e-03		1.0000e+00
			-0.6		3.5548e-03		1.0000e+00
			-0.55		3.6044e-03		1.0000e+00
			-0.5		3.6540e-03		1.0000e+00
			-0.45		3.7037e-03		1.0000e+00
			-0.4		3.7533e-03		1.0000e+00
			-0.35		3.7914e-03		1.0000e+00
			-0.3		3.8295e-03		1.0000e+00
			-0.25		3.8675e-03		1.0000e+00
			-0.2		3.9056e-03		1.0000e+00
			-0.15		3.9438e-03		1.0000e+00
			-0.1		3.9820e-03		1.0000e+00
			-0.05		4.0202e-03		1.0000e+00
			-0.0		4.0584e-03		1.0000e+00
			0.05		4.1152e-03		1.0000e+00
			0.1		4.1720e-03		1.0000e+00
			0.15		4.2287e-03		1.0000e+00
			0.2		4.2855e-03		1.0000e+00
			0.25		4.3110e-03		1.0000e+00
			0.3		4.3365e-03		1.0000e+00
			0.35		4.3620e-03		1.0000e+00
			0.4		4.3875e-03		1.0000e+00
			0.45		4.4600e-03		1.0000e+00
			0.5		4.5324e-03		1.0000e+00
			0.55		4.6049e-03		1.0000e+00
			0.6		4.6773e-03		1.0000e+00
			0.65		4.6996e-03		1.0000e+00
			0.7		4.7220e-03		1.0000e+00
			0.75		4.7443e-03		1.0000e+00
			0.8		4.7666e-03		1.0000e+00
			0.85		4.8442e-03		1.0000e+00
			0.9		4.9218e-03		1.0000e+00
			0.95		4.9994e-03		1.0000e+00
			1.0		5.0770e-03		1.0000e+00
			1.05		5.1078e-03		1.0000e+00
			1.1		5.1387e-03		1.0000e+00
			1.15		5.1696e-03		1.0000e+00
			1.2		5.2004e-03		1.0000e+00
			1.25		5.2681e-03		1.0000e+00
			1.3		5.3358e-03		1.0000e+00
			1.35		5.4035e-03		1.0000e+00
			1.4		5.4712e-03		1.0000e+00
			1.45		5.5230e-03		1.0000e+00
			1.5		5.5748e-03		1.0000e+00
			1.55		5.6266e-03		1.0000e+00
			1.6		5.6784e-03		1.0000e+00
			1.65		5.7305e-03		1.0000e+00
			1.7		5.7826e-03		1.0000e+00
			1.75		5.8347e-03		1.0000e+00
			1.8		5.8868e-03		1.0000e+00
			1.85		5.9629e-03		1.0000e+00
			1.9		6.0391e-03		1.0000e+00
			1.95		6.1153e-03		1.0000e+00
			2.0		6.1915e-03		1.0000e+00
			2.05		6.2258e-03		1.0000e+00
			2.1		6.2602e-03		1.0000e+00
			2.15		6.2946e-03		1.0000e+00
			2.2		6.3290e-03		1.0000e+00
			2.25		6.4256e-03		1.0000e+00
			2.3		6.5222e-03		1.0000e+00
			2.35		6.6188e-03		1.0000e+00
			2.4		6.7155e-03		1.0000e+00
			2.45		6.7449e-03		1.0000e+00
			2.5		6.7743e-03		1.0000e+00
			2.55		6.8038e-03		1.0000e+00
			2.6		6.8332e-03		1.0000e+00
			2.65		6.9358e-03		1.0000e+00
			2.7		7.0383e-03		1.0000e+00
			2.75		7.1408e-03		1.0000e+00
			2.8		7.2434e-03		1.0000e+00
			2.85		7.2832e-03		1.0000e+00
			2.9		7.3231e-03		1.0000e+00
			2.95		7.3630e-03		1.0000e+00
			3.0		7.4029e-03		1.0000e+00
			3.05		7.4908e-03		1.0000e+00
			3.1		7.5787e-03		1.0000e+00
			3.15		7.6666e-03		1.0000e+00
			3.2		7.7545e-03		1.0000e+00
			3.25		7.8211e-03		1.0000e+00
			3.3		7.8876e-03		1.0000e+00
			3.35		7.9542e-03		1.0000e+00
			3.4		8.0208e-03		1.0000e+00
			3.45		8.0879e-03		1.0000e+00
			3.5		8.1550e-03		1.0000e+00
			3.55		8.2220e-03		1.0000e+00
			3.6		8.2891e-03		1.0000e+00
			3.65		8.3866e-03		1.0000e+00
			3.7		8.4841e-03		1.0000e+00
			3.75		8.5815e-03		1.0000e+00
			3.8		8.6790e-03		1.0000e+00
			3.85		8.7226e-03		1.0000e+00
			3.9		8.7662e-03		1.0000e+00
			3.95		8.8098e-03		1.0000e+00
			4.0		8.8534e-03		1.0000e+00
			4.05		8.9780e-03		1.0000e+00
			4.1		9.1026e-03		1.0000e+00
			4.15		9.2273e-03		1.0000e+00
			4.2		9.3519e-03		1.0000e+00
			4.25		9.3888e-03		1.0000e+00
			4.3		9.4257e-03		1.0000e+00
			4.35		9.4626e-03		1.0000e+00
			4.4		9.4995e-03		1.0000e+00
			4.45		9.6307e-03		1.0000e+00
			4.5		9.7619e-03		1.0000e+00
			4.55		9.8930e-03		1.0000e+00
			4.6		1.0024e-02		1.0000e+00
			4.65		1.0074e-02		1.0000e+00
			4.7		1.0125e-02		1.0000e+00
			4.75		1.0175e-02		1.0000e+00
			4.8		1.0225e-02		1.0000e+00
			4.85		1.0336e-02		1.0000e+00
			4.9		1.0446e-02		1.0000e+00
			4.95		1.0557e-02		1.0000e+00
			5.0		1.0668e-02		1.0000e+00
			5.05		1.0752e-02		1.0000e+00
			5.1		1.0836e-02		1.0000e+00
			5.15		1.0920e-02		1.0000e+00
			5.2		1.1004e-02		1.0000e+00
			5.25		1.1087e-02		1.0000e+00
			5.3		1.1171e-02		1.0000e+00
			5.35		1.1255e-02		1.0000e+00
			5.4		1.1339e-02		1.0000e+00
			5.45		1.1460e-02		1.0000e+00
			5.5		1.1581e-02		1.0000e+00
			5.55		1.1702e-02		1.0000e+00
			5.6		1.1823e-02		1.0000e+00
			5.65		1.1877e-02		1.0000e+00
			5.7		1.1931e-02		1.0000e+00
			5.75		1.1985e-02		1.0000e+00
			5.8		1.2039e-02		1.0000e+00
			5.85		1.2192e-02		1.0000e+00
			5.9		1.2346e-02		1.0000e+00
			5.95		1.2500e-02		1.0000e+00
			6.0		1.2654e-02		1.0000e+00
			6.05		1.2699e-02		1.0000e+00
			6.1		1.2744e-02		1.0000e+00
			6.15		1.2790e-02		1.0000e+00
			6.2		1.2835e-02		1.0000e+00
			6.25		1.2996e-02		1.0000e+00
			6.3		1.3156e-02		1.0000e+00
			6.35		1.3317e-02		1.0000e+00
			6.4		1.3478e-02		1.0000e+00
			6.45		1.3538e-02		1.0000e+00
			6.5		1.3599e-02		1.0000e+00
			6.55		1.3660e-02		1.0000e+00
			6.6		1.3721e-02		1.0000e+00
			6.65		1.3855e-02		1.0000e+00
			6.7		1.3989e-02		1.0000e+00
			6.75		1.4123e-02		1.0000e+00
			6.8		1.4258e-02		1.0000e+00
			6.85		1.4359e-02		1.0000e+00
			6.9		1.4460e-02		1.0000e+00
			6.95		1.4562e-02		1.0000e+00
			7.0		1.4663e-02		1.0000e+00
			7.05		1.4764e-02		1.0000e+00
			7.1		1.4865e-02		1.0000e+00
			7.15		1.4966e-02		1.0000e+00
			7.2		1.5067e-02		1.0000e+00
			7.25		1.5212e-02		1.0000e+00
			7.3		1.5357e-02		1.0000e+00
			7.35		1.5502e-02		1.0000e+00
			7.4		1.5647e-02		1.0000e+00
			7.45		1.5711e-02		1.0000e+00
			7.5		1.5774e-02		1.0000e+00
			7.55		1.5838e-02		1.0000e+00
			7.6		1.5901e-02		1.0000e+00
			7.65		1.6085e-02		1.0000e+00
			7.7		1.6268e-02		1.0000e+00
			7.75		1.6451e-02		1.0000e+00
			7.8		1.6634e-02		1.0000e+00
			7.85		1.6728e-02		1.0000e+00
			7.9		1.6821e-02		1.0000e+00
			7.95		1.6914e-02		1.0000e+00
			8.0		1.7007e-02		1.0000e+00
			8.05		1.7469e-02		1.0000e+00
			8.1		1.7931e-02		1.0000e+00
			8.15		1.8393e-02		1.0000e+00
			8.2		1.8855e-02		1.0000e+00
			8.25		1.9247e-02		1.0000e+00
			8.3		1.9639e-02		1.0000e+00
			8.35		2.0031e-02		1.0000e+00
			8.4		2.0423e-02		1.0000e+00
			8.45		2.1350e-02		1.0000e+00
			8.5		2.2277e-02		1.0000e+00
			8.55		2.3204e-02		1.0000e+00
			8.6		2.4131e-02		1.0000e+00
			8.65		2.4965e-02		1.0000e+00
			8.7		2.5799e-02		1.0000e+00
			8.75		2.6633e-02		1.0000e+00
			8.8		2.7467e-02		1.0000e+00
			8.85		2.8299e-02		1.0000e+00
			8.9		2.9130e-02		1.0000e+00
			8.95		2.9962e-02		1.0000e+00
			9.0		3.0793e-02		1.0000e+00
			9.05		3.2267e-02		1.0000e+00
			9.1		3.3741e-02		1.0000e+00
			9.15		3.5215e-02		1.0000e+00
			9.2		3.6690e-02		1.0000e+00
			9.25		3.7326e-02		1.0000e+00
			9.3		3.7963e-02		1.0000e+00
			9.35		3.8600e-02		1.0000e+00
			9.4		3.9236e-02		1.0000e+00
			9.45		4.1489e-02		1.0000e+00
			9.5		4.3741e-02		1.0000e+00
			9.55		4.5993e-02		1.0000e+00
			9.6		4.8245e-02		1.0000e+00
			9.65		4.8971e-02		1.0000e+00
			9.7		4.9697e-02		1.0000e+00
			9.75		5.0423e-02		1.0000e+00
			9.8		5.1150e-02		1.0000e+00
			9.85		1.0096e-01		1.0000e+00
			9.9		1.5076e-01		1.0000e+00
			9.95		2.0057e-01		1.0000e+00
			10.0		2.5038e-01		1.0000e+00
			10.05		3.0023e-01		1.0000e+00
			10.1		3.5008e-01		1.0000e+00
			10.15		3.9994e-01		1.0000e+00
			10.2		4.4979e-01		1.0000e+00
			10.25		4.9967e-01		1.0000e+00
			10.3		5.4956e-01		1.0000e+00
			10.35		5.9945e-01		1.0000e+00
			10.4		6.4934e-01		1.0000e+00
			10.45		6.9926e-01		1.0000e+00
			10.5		7.4919e-01		1.0000e+00
			10.55		7.9912e-01		1.0000e+00
			10.6		8.4904e-01		1.0000e+00
			10.65		8.5696e-01		1.0000e+00
			10.7		8.6488e-01		1.0000e+00
			10.75		8.7280e-01		1.0000e+00
			10.8		8.8072e-01		1.0000e+00
			10.85		8.8864e-01		1.0000e+00
			10.9		8.9657e-01		1.0000e+00
			10.95		9.0449e-01		1.0000e+00
			11.0		9.1242e-01		1.0000e+00
			11.05		9.2035e-01		1.0000e+00
			11.1		9.2828e-01		1.0000e+00
			11.15		9.3620e-01		1.0000e+00
			11.2		9.4413e-01		1.0000e+00
			11.25		9.5207e-01		1.0000e+00
			11.3		9.6000e-01		1.0000e+00
			11.35		9.6794e-01		1.0000e+00
			11.4		9.7587e-01		1.0000e+00
			11.45		9.8438e-01		1.0000e+00
			11.5		9.9289e-01		1.0000e+00
			11.55		1.0014e+00		1.0000e+00
			11.6		1.0099e+00		1.0000e+00
			11.65		1.0184e+00		1.0000e+00
			11.7		1.0269e+00		1.0000e+00
			11.75		1.0354e+00		1.0000e+00
			11.8		1.0440e+00		1.0000e+00
			11.85		1.0525e+00		1.0000e+00
			11.9		1.0610e+00		1.0000e+00
			11.95		1.0695e+00		1.0000e+00
			12.0		1.0780e+00		1.0000e+00
			12.05		1.0865e+00		1.0000e+00
			12.1		1.0951e+00		1.0000e+00
			12.15		1.1036e+00		1.0000e+00
			12.2		1.1121e+00		1.0000e+00
			12.25		1.1240e+00		1.0000e+00
			12.3		1.1358e+00		1.0000e+00
			12.35		1.1477e+00		1.0000e+00
			12.4		1.1595e+00		1.0000e+00
			12.45		1.1714e+00		1.0000e+00
			12.5		1.1832e+00		1.0000e+00
			12.55		1.1951e+00		1.0000e+00
			12.6		1.2070e+00		1.0000e+00
			12.65		1.2188e+00		1.0000e+00
			12.7		1.2307e+00		1.0000e+00
			12.75		1.2426e+00		1.0000e+00
			12.8		1.2544e+00		1.0000e+00
			12.85		1.2663e+00		1.0000e+00
			12.9		1.2782e+00		1.0000e+00
			12.95		1.2900e+00		1.0000e+00
			13.0		1.3019e+00		1.0000e+00
			13.05		1.3173e+00		1.0000e+00
			13.1		1.3327e+00		1.0000e+00
			13.15		1.3480e+00		1.0000e+00
			13.2		1.3634e+00		1.0000e+00
			13.25		1.3788e+00		1.0000e+00
			13.3		1.3942e+00		1.0000e+00
			13.35		1.4096e+00		1.0000e+00
			13.4		1.4250e+00		1.0000e+00
			13.45		1.4404e+00		1.0000e+00
			13.5		1.4558e+00		1.0000e+00
			13.55		1.4712e+00		1.0000e+00
			13.6		1.4866e+00		1.0000e+00
			13.65		1.5020e+00		1.0000e+00
			13.7		1.5174e+00		1.0000e+00
			13.75		1.5328e+00		1.0000e+00
			13.8		1.5482e+00		1.0000e+00
			13.85		1.5686e+00		1.0000e+00
			13.9		1.5891e+00		1.0000e+00
			13.95		1.6096e+00		1.0000e+00
			14.0		1.6300e+00		1.0000e+00
			14.05		1.6505e+00		1.0000e+00
			14.1		1.6710e+00		1.0000e+00
			14.15		1.6914e+00		1.0000e+00
			14.2		1.7119e+00		1.0000e+00
			14.25		1.7324e+00		1.0000e+00
			14.3		1.7528e+00		1.0000e+00
			14.35		1.7733e+00		1.0000e+00
			14.4		1.7938e+00		1.0000e+00
			14.45		1.8143e+00		1.0000e+00
			14.5		1.8348e+00		1.0000e+00
			14.55		1.8553e+00		1.0000e+00
			14.6		1.8757e+00		1.0000e+00
			14.65		1.9124e+00		1.0000e+00
			14.7		1.9491e+00		1.0000e+00
			14.75		1.9858e+00		1.0000e+00
			14.8		2.0225e+00		1.0000e+00
			14.85		2.0593e+00		1.0000e+00
			14.9		2.0960e+00		1.0000e+00
			14.95		2.1327e+00		1.0000e+00
			15.0		2.1694e+00		1.0000e+00
			15.05		2.2062e+00		1.0000e+00
			15.1		2.2429e+00		1.0000e+00
			15.15		2.2797e+00		1.0000e+00
			15.2		2.3164e+00		1.0000e+00
			15.25		2.3531e+00		1.0000e+00
			15.3		2.3899e+00		1.0000e+00
			15.35		2.4267e+00		1.0000e+00
			15.4		2.4634e+00		1.0000e+00
			15.45		2.4957e+00		1.0000e+00
			15.5		2.5279e+00		1.0000e+00
			15.55		2.5602e+00		1.0000e+00
			15.6		2.5924e+00		1.0000e+00
			15.65		2.6247e+00		1.0000e+00
			15.7		2.6570e+00		1.0000e+00
			15.75		2.6892e+00		1.0000e+00
			15.8		2.7215e+00		1.0000e+00
			15.85		2.7538e+00		1.0000e+00
			15.9		2.7860e+00		1.0000e+00
			15.95		2.8183e+00		1.0000e+00
			16.0		2.8506e+00		1.0000e+00
			16.05		2.8829e+00		1.0000e+00
			16.1		2.9152e+00		1.0000e+00
			16.15		2.9475e+00		1.0000e+00
			16.2		2.9798e+00		1.0000e+00
			16.25		3.0169e+00		1.0000e+00
			16.3		3.0540e+00		1.0000e+00
			16.35		3.0911e+00		1.0000e+00
			16.4		3.1282e+00		1.0000e+00
			16.45		3.1653e+00		1.0000e+00
			16.5		3.2024e+00		1.0000e+00
			16.55		3.2395e+00		1.0000e+00
			16.6		3.2766e+00		1.0000e+00
			16.65		3.3137e+00		1.0000e+00
			16.7		3.3509e+00		1.0000e+00
			16.75		3.3880e+00		1.0000e+00
			16.8		3.4251e+00		1.0000e+00
			16.85		3.4622e+00		1.0000e+00
			16.9		3.4994e+00		1.0000e+00
			16.95		3.5365e+00		1.0000e+00
			17.0		3.5737e+00		1.0000e+00
			17.05		3.6234e+00		1.0000e+00
			17.1		3.6731e+00		1.0000e+00
			17.15		3.7229e+00		1.0000e+00
			17.2		3.7726e+00		1.0000e+00
			17.25		3.8224e+00		1.0000e+00
			17.3		3.8722e+00		1.0000e+00
			17.35		3.9219e+00		1.0000e+00
			17.4		3.9717e+00		1.0000e+00
			17.45		4.0214e+00		1.0000e+00
			17.5		4.0712e+00		1.0000e+00
			17.55		4.1210e+00		1.0000e+00
			17.6		4.1708e+00		1.0000e+00
			17.65		4.2206e+00		1.0000e+00
			17.7		4.2704e+00		1.0000e+00
			17.75		4.3201e+00		1.0000e+00
			17.8		4.3699e+00		1.0000e+00
			17.85		4.4843e+00		1.0000e+00
			17.9		4.5987e+00		1.0000e+00
			17.95		4.7131e+00		1.0000e+00
			18.0		4.8275e+00		1.0000e+00
			18.05		4.9419e+00		1.0000e+00
			18.1		5.0563e+00		1.0000e+00
			18.15		5.1707e+00		1.0000e+00
			18.2		5.2851e+00		1.0000e+00
			18.25		5.4028e+00		1.0000e+00
			18.3		5.5205e+00		1.0000e+00
			18.35		5.6381e+00		1.0000e+00
			18.4		5.7558e+00		1.0000e+00
			18.45		5.8751e+00		1.0000e+00
			18.5		5.9945e+00		1.0000e+00
			18.55		6.1138e+00		1.0000e+00
			18.6		6.2331e+00		1.0000e+00
			18.65		6.6938e+00		1.0000e+00
			18.7		7.1545e+00		1.0000e+00
			18.75		7.6151e+00		1.0000e+00
			18.8		8.0758e+00		1.0000e+00
			18.85		9.6608e+00		1.0000e+00
			18.9		1.1246e+01		1.0000e+00
			18.95		1.2831e+01		1.0000e+00
			19.0		1.4416e+01		1.0000e+00
			19.05		1.6516e+01		1.0000e+00
			19.1		1.8615e+01		1.0000e+00
			19.15		2.0715e+01		1.0000e+00
			19.2		2.2815e+01		1.0000e+00
			19.25		2.3651e+01		1.0000e+00
			19.3		2.4487e+01		1.0000e+00
			19.35		2.5324e+01		1.0000e+00
			19.4		2.6160e+01		1.0000e+00
			19.45		2.6433e+01		1.0000e+00
			19.5		2.6706e+01		1.0000e+00
			19.55		2.6979e+01		1.0000e+00
			19.6		2.7252e+01		1.0000e+00
			19.65		2.7381e+01		1.0000e+00
			19.7		2.7509e+01		1.0000e+00
			19.75		2.7637e+01		1.0000e+00
			19.8		2.7766e+01		1.0000e+00
			19.85		2.7847e+01		1.0000e+00
			19.9		2.7929e+01		1.0000e+00
			19.95		2.8010e+01		1.0000e+00
			20.0		2.8092e+01		1.0000e+00
			20.05		2.8161e+01		1.0000e+00
			20.1		2.8230e+01		1.0000e+00
			20.15		2.8299e+01		1.0000e+00
			20.2		2.8369e+01		1.0000e+00
			20.25		2.8421e+01		1.0000e+00
			20.3		2.8474e+01		1.0000e+00
			20.35		2.8527e+01		1.0000e+00
			20.4		2.8579e+01		1.0000e+00
			20.45		2.8632e+01		1.0000e+00
			20.5		2.8685e+01		1.0000e+00
			20.55		2.8737e+01		1.0000e+00
			20.6		2.8790e+01		1.0000e+00
			20.65		2.8843e+01		1.0000e+00
			20.7		2.8895e+01		1.0000e+00
			20.75		2.8948e+01		1.0000e+00
			20.8		2.9000e+01		1.0000e+00
			20.85		2.9053e+01		1.0000e+00
			20.9		2.9106e+01		1.0000e+00
			20.95		2.9158e+01		1.0000e+00
			21.0		2.9211e+01		1.0000e+00
			21.05		2.9245e+01		1.0000e+00
			21.1		2.9280e+01		1.0000e+00
			21.15		2.9315e+01		1.0000e+00
			21.2		2.9349e+01		1.0000e+00
			21.25		2.9384e+01		1.0000e+00
			21.3		2.9419e+01		1.0000e+00
			21.35		2.9453e+01		1.0000e+00
			21.4		2.9488e+01		1.0000e+00
			21.45		2.9522e+01		1.0000e+00
			21.5		2.9557e+01		1.0000e+00
			21.55		2.9592e+01		1.0000e+00
			21.6		2.9626e+01		1.0000e+00
			21.65		2.9661e+01		1.0000e+00
			21.7		2.9695e+01		1.0000e+00
			21.75		2.9730e+01		1.0000e+00
			21.8		2.9764e+01		1.0000e+00
			21.85		2.9785e+01		1.0000e+00
			21.9		2.9805e+01		1.0000e+00
			21.95		2.9825e+01		1.0000e+00
			22.0		2.9845e+01		1.0000e+00
			22.05		2.9865e+01		1.0000e+00
			22.1		2.9885e+01		1.0000e+00
			22.15		2.9905e+01		1.0000e+00
			22.2		2.9925e+01		1.0000e+00
			22.25		2.9945e+01		1.0000e+00
			22.3		2.9965e+01		1.0000e+00
			22.35		2.9985e+01		1.0000e+00
			22.4		3.0005e+01		1.0000e+00
			22.45		3.0025e+01		1.0000e+00
			22.5		3.0045e+01		1.0000e+00
			22.55		3.0065e+01		1.0000e+00
			22.6		3.0085e+01		1.0000e+00
			22.65		3.0101e+01		1.0000e+00
			22.7		3.0116e+01		1.0000e+00
			22.75		3.0132e+01		1.0000e+00
			22.8		3.0147e+01		1.0000e+00
			22.85		3.0163e+01		1.0000e+00
			22.9		3.0178e+01		1.0000e+00
			22.95		3.0194e+01		1.0000e+00
			23.0		3.0209e+01		1.0000e+00
			23.05		3.0225e+01		1.0000e+00
			23.1		3.0240e+01		1.0000e+00
			23.15		3.0256e+01		1.0000e+00
			23.2		3.0271e+01		1.0000e+00
			23.25		3.0286e+01		1.0000e+00
			23.3		3.0302e+01		1.0000e+00
			23.35		3.0317e+01		1.0000e+00
			23.4		3.0333e+01		1.0000e+00
			23.45		3.0339e+01		1.0000e+00
			23.5		3.0345e+01		1.0000e+00
			23.55		3.0352e+01		1.0000e+00
			23.6		3.0358e+01		1.0000e+00
			23.65		3.0364e+01		1.0000e+00
			23.7		3.0370e+01		1.0000e+00
			23.75		3.0376e+01		1.0000e+00
			23.8		3.0383e+01		1.0000e+00
			23.85		3.0389e+01		1.0000e+00
			23.9		3.0395e+01		1.0000e+00
			23.95		3.0401e+01		1.0000e+00
			24.0		3.0407e+01		1.0000e+00
			24.05		3.0413e+01		1.0000e+00
			24.1		3.0420e+01		1.0000e+00
			24.15		3.0426e+01		1.0000e+00
			24.2		3.0432e+01		1.0000e+00
			24.25		3.0435e+01		1.0000e+00
			24.3		3.0437e+01		1.0000e+00
			24.35		3.0440e+01		1.0000e+00
			24.4		3.0442e+01		1.0000e+00
			24.45		3.0445e+01		1.0000e+00
			24.5		3.0448e+01		1.0000e+00
			24.55		3.0450e+01		1.0000e+00
			24.6		3.0453e+01		1.0000e+00
			24.65		3.0455e+01		1.0000e+00
			24.7		3.0458e+01		1.0000e+00
			24.75		3.0460e+01		1.0000e+00
			24.8		3.0463e+01		1.0000e+00
			24.85		3.0465e+01		1.0000e+00
			24.9		3.0468e+01		1.0000e+00
			24.95		3.0470e+01		1.0000e+00
			25.0		3.0473e+01		1.0000e+00
			25.05		3.0470e+01		1.0000e+00
			25.1		3.0468e+01		1.0000e+00
			25.15		3.0465e+01		1.0000e+00
			25.2		3.0463e+01		1.0000e+00
			25.25		3.0460e+01		1.0000e+00
			25.3		3.0458e+01		1.0000e+00
			25.35		3.0455e+01		1.0000e+00
			25.4		3.0453e+01		1.0000e+00
			25.45		3.0450e+01		1.0000e+00
			25.5		3.0447e+01		1.0000e+00
			25.55		3.0445e+01		1.0000e+00
			25.6		3.0442e+01		1.0000e+00
			25.65		3.0440e+01		1.0000e+00
			25.7		3.0437e+01		1.0000e+00
			25.75		3.0434e+01		1.0000e+00
			25.8		3.0432e+01		1.0000e+00
			25.85		3.0425e+01		1.0000e+00
			25.9		3.0419e+01		1.0000e+00
			25.95		3.0412e+01		1.0000e+00
			26.0		3.0406e+01		1.0000e+00
			26.05		3.0399e+01		1.0000e+00
			26.1		3.0393e+01		1.0000e+00
			26.15		3.0387e+01		1.0000e+00
			26.2		3.0380e+01		1.0000e+00
			26.25		3.0374e+01		1.0000e+00
			26.3		3.0367e+01		1.0000e+00
			26.35		3.0361e+01		1.0000e+00
			26.4		3.0354e+01		1.0000e+00
			26.45		3.0348e+01		1.0000e+00
			26.5		3.0341e+01		1.0000e+00
			26.55		3.0335e+01		1.0000e+00
			26.6		3.0328e+01		1.0000e+00
			26.65		3.0313e+01		1.0000e+00
			26.7		3.0298e+01		1.0000e+00
			26.75		3.0283e+01		1.0000e+00
			26.8		3.0268e+01		1.0000e+00
			26.85		3.0252e+01		1.0000e+00
			26.9		3.0237e+01		1.0000e+00
			26.95		3.0222e+01		1.0000e+00
			27.0		3.0207e+01		1.0000e+00
			27.05		3.0192e+01		1.0000e+00
			27.1		3.0177e+01		1.0000e+00
			27.15		3.0161e+01		1.0000e+00
			27.2		3.0146e+01		1.0000e+00
			27.25		3.0131e+01		1.0000e+00
			27.3		3.0116e+01		1.0000e+00
			27.35		3.0100e+01		1.0000e+00
			27.4		3.0085e+01		1.0000e+00
			27.45		3.0065e+01		1.0000e+00
			27.5		3.0046e+01		1.0000e+00
			27.55		3.0026e+01		1.0000e+00
			27.6		3.0006e+01		1.0000e+00
			27.65		2.9986e+01		1.0000e+00
			27.7		2.9966e+01		1.0000e+00
			27.75		2.9946e+01		1.0000e+00
			27.8		2.9926e+01		1.0000e+00
			27.85		2.9906e+01		1.0000e+00
			27.9		2.9886e+01		1.0000e+00
			27.95		2.9866e+01		1.0000e+00
			28.0		2.9847e+01		1.0000e+00
			28.05		2.9827e+01		1.0000e+00
			28.1		2.9807e+01		1.0000e+00
			28.15		2.9787e+01		1.0000e+00
			28.2		2.9767e+01		1.0000e+00
			28.25		2.9732e+01		1.0000e+00
			28.3		2.9697e+01		1.0000e+00
			28.35		2.9662e+01		1.0000e+00
			28.4		2.9627e+01		1.0000e+00
			28.45		2.9592e+01		1.0000e+00
			28.5		2.9558e+01		1.0000e+00
			28.55		2.9523e+01		1.0000e+00
			28.6		2.9488e+01		1.0000e+00
			28.65		2.9453e+01		1.0000e+00
			28.7		2.9418e+01		1.0000e+00
			28.75		2.9383e+01		1.0000e+00
			28.8		2.9348e+01		1.0000e+00
			28.85		2.9313e+01		1.0000e+00
			28.9		2.9278e+01		1.0000e+00
			28.95		2.9243e+01		1.0000e+00
			29.0		2.9208e+01		1.0000e+00
			29.05		2.9156e+01		1.0000e+00
			29.1		2.9104e+01		1.0000e+00
			29.15		2.9051e+01		1.0000e+00
			29.2		2.8999e+01		1.0000e+00
			29.25		2.8946e+01		1.0000e+00
			29.3		2.8894e+01		1.0000e+00
			29.35		2.8841e+01		1.0000e+00
			29.4		2.8789e+01		1.0000e+00
			29.45		2.8737e+01		1.0000e+00
			29.5		2.8684e+01		1.0000e+00
			29.55		2.8632e+01		1.0000e+00
			29.6		2.8579e+01		1.0000e+00
			29.65		2.8527e+01		1.0000e+00
			29.7		2.8474e+01		1.0000e+00
			29.75		2.8422e+01		1.0000e+00
			29.8		2.8369e+01		1.0000e+00
			29.85		2.8300e+01		1.0000e+00
			29.9		2.8231e+01		1.0000e+00
			29.95		2.8162e+01		1.0000e+00
			30.0		2.8093e+01		1.0000e+00
			30.05		2.8011e+01		1.0000e+00
			30.1		2.7929e+01		1.0000e+00
			30.15		2.7847e+01		1.0000e+00
			30.2		2.7766e+01		1.0000e+00
			30.25		2.7637e+01		1.0000e+00
			30.3		2.7509e+01		1.0000e+00
			30.35		2.7380e+01		1.0000e+00
			30.4		2.7252e+01		1.0000e+00
			30.45		2.6979e+01		1.0000e+00
			30.5		2.6705e+01		1.0000e+00
			30.55		2.6432e+01		1.0000e+00
			30.6		2.6159e+01		1.0000e+00
			30.65		2.5323e+01		1.0000e+00
			30.7		2.4488e+01		1.0000e+00
			30.75		2.3652e+01		1.0000e+00
			30.8		2.2816e+01		1.0000e+00
			30.85		2.0718e+01		1.0000e+00
			30.9		1.8619e+01		1.0000e+00
			30.95		1.6521e+01		1.0000e+00
			31.0		1.4423e+01		1.0000e+00
			31.05		1.2836e+01		1.0000e+00
			31.1		1.1250e+01		1.0000e+00
			31.15		9.6643e+00		1.0000e+00
			31.2		8.0782e+00		1.0000e+00
			31.25		7.6088e+00		1.0000e+00
			31.3		7.1395e+00		1.0000e+00
			31.35		6.6702e+00		1.0000e+00
			31.4		6.2009e+00		1.0000e+00
			31.45		6.0864e+00		1.0000e+00
			31.5		5.9719e+00		1.0000e+00
			31.55		5.8574e+00		1.0000e+00
			31.6		5.7429e+00		1.0000e+00
			31.65		5.6285e+00		1.0000e+00
			31.7		5.5140e+00		1.0000e+00
			31.75		5.3996e+00		1.0000e+00
			31.8		5.2851e+00		1.0000e+00
			31.85		5.1707e+00		1.0000e+00
			31.9		5.0563e+00		1.0000e+00
			31.95		4.9419e+00		1.0000e+00
			32.0		4.8274e+00		1.0000e+00
			32.05		4.7131e+00		1.0000e+00
			32.1		4.5987e+00		1.0000e+00
			32.15		4.4843e+00		1.0000e+00
			32.2		4.3699e+00		1.0000e+00
			32.25		4.3201e+00		1.0000e+00
			32.3		4.2703e+00		1.0000e+00
			32.35		4.2206e+00		1.0000e+00
			32.4		4.1708e+00		1.0000e+00
			32.45		4.1210e+00		1.0000e+00
			32.5		4.0712e+00		1.0000e+00
			32.55		4.0215e+00		1.0000e+00
			32.6		3.9717e+00		1.0000e+00
			32.65		3.9219e+00		1.0000e+00
			32.7		3.8722e+00		1.0000e+00
			32.75		3.8224e+00		1.0000e+00
			32.8		3.7727e+00		1.0000e+00
			32.85		3.7229e+00		1.0000e+00
			32.9		3.6732e+00		1.0000e+00
			32.95		3.6234e+00		1.0000e+00
			33.0		3.5737e+00		1.0000e+00
			33.05		3.5366e+00		1.0000e+00
			33.1		3.4994e+00		1.0000e+00
			33.15		3.4623e+00		1.0000e+00
			33.2		3.4252e+00		1.0000e+00
			33.25		3.3880e+00		1.0000e+00
			33.3		3.3509e+00		1.0000e+00
			33.35		3.3138e+00		1.0000e+00
			33.4		3.2767e+00		1.0000e+00
			33.45		3.2395e+00		1.0000e+00
			33.5		3.2024e+00		1.0000e+00
			33.55		3.1653e+00		1.0000e+00
			33.6		3.1282e+00		1.0000e+00
			33.65		3.0911e+00		1.0000e+00
			33.7		3.0540e+00		1.0000e+00
			33.75		3.0169e+00		1.0000e+00
			33.8		2.9798e+00		1.0000e+00
			33.85		2.9475e+00		1.0000e+00
			33.9		2.9152e+00		1.0000e+00
			33.95		2.8829e+00		1.0000e+00
			34.0		2.8507e+00		1.0000e+00
			34.05		2.8184e+00		1.0000e+00
			34.1		2.7861e+00		1.0000e+00
			34.15		2.7538e+00		1.0000e+00
			34.2		2.7215e+00		1.0000e+00
			34.25		2.6893e+00		1.0000e+00
			34.3		2.6570e+00		1.0000e+00
			34.35		2.6247e+00		1.0000e+00
			34.4		2.5925e+00		1.0000e+00
			34.45		2.5602e+00		1.0000e+00
			34.5		2.5280e+00		1.0000e+00
			34.55		2.4957e+00		1.0000e+00
			34.6		2.4635e+00		1.0000e+00
			34.65		2.4267e+00		1.0000e+00
			34.7		2.3899e+00		1.0000e+00
			34.75		2.3532e+00		1.0000e+00
			34.8		2.3164e+00		1.0000e+00
			34.85		2.2797e+00		1.0000e+00
			34.9		2.2429e+00		1.0000e+00
			34.95		2.2062e+00		1.0000e+00
			35.0		2.1695e+00		1.0000e+00
			35.05		2.1327e+00		1.0000e+00
			35.1		2.0960e+00		1.0000e+00
			35.15		2.0593e+00		1.0000e+00
			35.2		2.0226e+00		1.0000e+00
			35.25		1.9859e+00		1.0000e+00
			35.3		1.9492e+00		1.0000e+00
			35.35		1.9125e+00		1.0000e+00
			35.4		1.8757e+00		1.0000e+00
			35.45		1.8553e+00		1.0000e+00
			35.5		1.8348e+00		1.0000e+00
			35.55		1.8143e+00		1.0000e+00
			35.6		1.7938e+00		1.0000e+00
			35.65		1.7733e+00		1.0000e+00
			35.7		1.7528e+00		1.0000e+00
			35.75		1.7324e+00		1.0000e+00
			35.8		1.7119e+00		1.0000e+00
			35.85		1.6914e+00		1.0000e+00
			35.9		1.6709e+00		1.0000e+00
			35.95		1.6505e+00		1.0000e+00
			36.0		1.6300e+00		1.0000e+00
			36.05		1.6095e+00		1.0000e+00
			36.1		1.5891e+00		1.0000e+00
			36.15		1.5686e+00		1.0000e+00
			36.2		1.5482e+00		1.0000e+00
			36.25		1.5328e+00		1.0000e+00
			36.3		1.5174e+00		1.0000e+00
			36.35		1.5020e+00		1.0000e+00
			36.4		1.4866e+00		1.0000e+00
			36.45		1.4712e+00		1.0000e+00
			36.5		1.4558e+00		1.0000e+00
			36.55		1.4404e+00		1.0000e+00
			36.6		1.4250e+00		1.0000e+00
			36.65		1.4096e+00		1.0000e+00
			36.7		1.3942e+00		1.0000e+00
			36.75		1.3788e+00		1.0000e+00
			36.8		1.3634e+00		1.0000e+00
			36.85		1.3481e+00		1.0000e+00
			36.9		1.3327e+00		1.0000e+00
			36.95		1.3173e+00		1.0000e+00
			37.0		1.3019e+00		1.0000e+00
			37.05		1.2901e+00		1.0000e+00
			37.1		1.2782e+00		1.0000e+00
			37.15		1.2663e+00		1.0000e+00
			37.2		1.2544e+00		1.0000e+00
			37.25		1.2426e+00		1.0000e+00
			37.3		1.2307e+00		1.0000e+00
			37.35		1.2188e+00		1.0000e+00
			37.4		1.2070e+00		1.0000e+00
			37.45		1.1951e+00		1.0000e+00
			37.5		1.1833e+00		1.0000e+00
			37.55		1.1714e+00		1.0000e+00
			37.6		1.1595e+00		1.0000e+00
			37.65		1.1477e+00		1.0000e+00
			37.7		1.1358e+00		1.0000e+00
			37.75		1.1240e+00		1.0000e+00
			37.8		1.1121e+00		1.0000e+00
			37.85		1.1036e+00		1.0000e+00
			37.9		1.0951e+00		1.0000e+00
			37.95		1.0866e+00		1.0000e+00
			38.0		1.0780e+00		1.0000e+00
			38.05		1.0695e+00		1.0000e+00
			38.1		1.0610e+00		1.0000e+00
			38.15		1.0525e+00		1.0000e+00
			38.2		1.0440e+00		1.0000e+00
			38.25		1.0354e+00		1.0000e+00
			38.3		1.0269e+00		1.0000e+00
			38.35		1.0184e+00		1.0000e+00
			38.4		1.0099e+00		1.0000e+00
			38.45		1.0014e+00		1.0000e+00
			38.5		9.9288e-01		1.0000e+00
			38.55		9.8437e-01		1.0000e+00
			38.6		9.7586e-01		1.0000e+00
			38.65		9.6793e-01		1.0000e+00
			38.7		9.5999e-01		1.0000e+00
			38.75		9.5206e-01		1.0000e+00
			38.8		9.4413e-01		1.0000e+00
			38.85		9.3620e-01		1.0000e+00
			38.9		9.2827e-01		1.0000e+00
			38.95		9.2034e-01		1.0000e+00
			39.0		9.1241e-01		1.0000e+00
			39.05		9.0449e-01		1.0000e+00
			39.1		8.9656e-01		1.0000e+00
			39.15		8.8864e-01		1.0000e+00
			39.2		8.8072e-01		1.0000e+00
			39.25		8.7280e-01		1.0000e+00
			39.3		8.6488e-01		1.0000e+00
			39.35		8.5696e-01		1.0000e+00
			39.4		8.4904e-01		1.0000e+00
			39.45		7.9911e-01		1.0000e+00
			39.5		7.4919e-01		1.0000e+00
			39.55		6.9926e-01		1.0000e+00
			39.6		6.4934e-01		1.0000e+00
			39.65		5.9945e-01		1.0000e+00
