BEGIN_SCAN_DATA
	FORMAT=CC-Export V1.9                  
	FILE_CREATION_DATE=
	LAST_MODIFIED=11-Jan-2023 10:50:14
	BEGIN_SCAN  1
		TASK_NAME=RayStation Phantom Profiles & PDDs
		PROGRAM=RayStation
		COMMENT=RayStation Script Export
		MEAS_DATE=11-Jan-2023 10:50:14
		LINAC=RayStation
		MODALITY=X
		ISOCENTER=1000.00
		INPLANE_AXIS=Y
		CROSSPLANE_AXIS=X
		DEPTH_AXIS=Z
		INPLANE_AXIS_DIR=GUN_TARGET
		CROSSPLANE_AXIS_DIR=LEFT_RIGHT
		DEPTH_AXIS_DIR=UP_DOWN
		ENERGY=6.3
		NOMINAL_DMAX=20.00
		SSD=1000.0
		SCD=1000.00
		WEDGE_ANGLE=0.00
		FIELD_INPLANE=150.0
		FIELD_CROSSPLANE=100.0
		FIELD_TYPE=IRREGULAR
		GANTRY=0.00
		GANTRY_UPRIGHT_POSITION=0
		GANTRY_ROTATION=CW
		COLL_ANGLE=0.00
		REF_FIELD_DEPTH=50.00
		REF_FIELD_DEFINED=ISOCENTER
		FIELD_INPLANE=150.0
		FIELD_CROSSPLANE=100.0
		SCAN_CURVETYPE=CROSSPLANE_PROFILE
		SCAN_DEPTH=200.0
		SCAN_OFFAXIS_INPLANE=0.00
		SCAN_OFFAXIS_CROSSPLANE=0.00
		SCAN_ANGLE=0.00
		SCAN_DIAGONAL=NOT_DIAGONAL
		SCAN_DIRECTION=NEGATIVE
		MEAS_MEDIUM=WATER
		MEAS_UNIT=cGy
		INCLINATION_ANGLE=0.00
		PRESSURE=1013.20
		TEMPERATURE=20.00
		NORM_TEMPERATURE=20.00
		CORRECTION_FACTOR=1.0000;
		BEGIN_DATA
			-30.05		1.4215e-04		1.0000e+00
			-30.0		2.1322e-04		1.0000e+00
			-29.95		2.8428e-04		1.0000e+00
			-29.9		2.9235e-04		1.0000e+00
			-29.85		3.0041e-04		1.0000e+00
			-29.8		3.0848e-04		1.0000e+00
			-29.75		3.1655e-04		1.0000e+00
			-29.7		3.2305e-04		1.0000e+00
			-29.65		3.2955e-04		1.0000e+00
			-29.6		3.3605e-04		1.0000e+00
			-29.55		3.4255e-04		1.0000e+00
			-29.5		3.4806e-04		1.0000e+00
			-29.45		3.5357e-04		1.0000e+00
			-29.4		3.5908e-04		1.0000e+00
			-29.35		3.6458e-04		1.0000e+00
			-29.3		3.7795e-04		1.0000e+00
			-29.25		3.9131e-04		1.0000e+00
			-29.2		4.0467e-04		1.0000e+00
			-29.15		4.1803e-04		1.0000e+00
			-29.1		4.2120e-04		1.0000e+00
			-29.05		4.2438e-04		1.0000e+00
			-29.0		4.2755e-04		1.0000e+00
			-28.95		4.3073e-04		1.0000e+00
			-28.9		4.5082e-04		1.0000e+00
			-28.85		4.7090e-04		1.0000e+00
			-28.8		4.9099e-04		1.0000e+00
			-28.75		5.1107e-04		1.0000e+00
			-28.7		5.1306e-04		1.0000e+00
			-28.65		5.1506e-04		1.0000e+00
			-28.6		5.1705e-04		1.0000e+00
			-28.55		5.1905e-04		1.0000e+00
			-28.5		5.4294e-04		1.0000e+00
			-28.45		5.6684e-04		1.0000e+00
			-28.4		5.9074e-04		1.0000e+00
			-28.35		6.1463e-04		1.0000e+00
			-28.3		6.2173e-04		1.0000e+00
			-28.25		6.2883e-04		1.0000e+00
			-28.2		6.3593e-04		1.0000e+00
			-28.15		6.4303e-04		1.0000e+00
			-28.1		6.6504e-04		1.0000e+00
			-28.05		6.8705e-04		1.0000e+00
			-28.0		7.0907e-04		1.0000e+00
			-27.95		7.3108e-04		1.0000e+00
			-27.9		7.4888e-04		1.0000e+00
			-27.85		7.6669e-04		1.0000e+00
			-27.8		7.8450e-04		1.0000e+00
			-27.75		8.0231e-04		1.0000e+00
			-27.7		8.1672e-04		1.0000e+00
			-27.65		8.3114e-04		1.0000e+00
			-27.6		8.4555e-04		1.0000e+00
			-27.55		8.5997e-04		1.0000e+00
			-27.5		8.9685e-04		1.0000e+00
			-27.45		9.3372e-04		1.0000e+00
			-27.4		9.7059e-04		1.0000e+00
			-27.35		1.0075e-03		1.0000e+00
			-27.3		1.0149e-03		1.0000e+00
			-27.25		1.0224e-03		1.0000e+00
			-27.2		1.0299e-03		1.0000e+00
			-27.15		1.0374e-03		1.0000e+00
			-27.1		1.0915e-03		1.0000e+00
			-27.05		1.1457e-03		1.0000e+00
			-27.0		1.1998e-03		1.0000e+00
			-26.95		1.2540e-03		1.0000e+00
			-26.9		1.2580e-03		1.0000e+00
			-26.85		1.2620e-03		1.0000e+00
			-26.8		1.2660e-03		1.0000e+00
			-26.75		1.2700e-03		1.0000e+00
			-26.7		1.3339e-03		1.0000e+00
			-26.65		1.3977e-03		1.0000e+00
			-26.6		1.4615e-03		1.0000e+00
			-26.55		1.5254e-03		1.0000e+00
			-26.5		1.5436e-03		1.0000e+00
			-26.45		1.5618e-03		1.0000e+00
			-26.4		1.5800e-03		1.0000e+00
			-26.35		1.5983e-03		1.0000e+00
			-26.3		1.6564e-03		1.0000e+00
			-26.25		1.7145e-03		1.0000e+00
			-26.2		1.7727e-03		1.0000e+00
			-26.15		1.8308e-03		1.0000e+00
			-26.1		1.8768e-03		1.0000e+00
			-26.05		1.9228e-03		1.0000e+00
			-26.0		1.9688e-03		1.0000e+00
			-25.95		2.0148e-03		1.0000e+00
			-25.9		2.0518e-03		1.0000e+00
			-25.85		2.0889e-03		1.0000e+00
			-25.8		2.1260e-03		1.0000e+00
			-25.75		2.1631e-03		1.0000e+00
			-25.7		2.2564e-03		1.0000e+00
			-25.65		2.3496e-03		1.0000e+00
			-25.6		2.4429e-03		1.0000e+00
			-25.55		2.5361e-03		1.0000e+00
			-25.5		2.5553e-03		1.0000e+00
			-25.45		2.5745e-03		1.0000e+00
			-25.4		2.5938e-03		1.0000e+00
			-25.35		2.6130e-03		1.0000e+00
			-25.3		2.7464e-03		1.0000e+00
			-25.25		2.8799e-03		1.0000e+00
			-25.2		3.0133e-03		1.0000e+00
			-25.15		3.1467e-03		1.0000e+00
			-25.1		3.1577e-03		1.0000e+00
			-25.05		3.1686e-03		1.0000e+00
			-25.0		3.1795e-03		1.0000e+00
			-24.95		3.1904e-03		1.0000e+00
			-24.9		3.3441e-03		1.0000e+00
			-24.85		3.4977e-03		1.0000e+00
			-24.8		3.6514e-03		1.0000e+00
			-24.75		3.8050e-03		1.0000e+00
			-24.7		3.8510e-03		1.0000e+00
			-24.65		3.8970e-03		1.0000e+00
			-24.6		3.9430e-03		1.0000e+00
			-24.55		3.9890e-03		1.0000e+00
			-24.5		4.1244e-03		1.0000e+00
			-24.45		4.2597e-03		1.0000e+00
			-24.4		4.3951e-03		1.0000e+00
			-24.35		4.5304e-03		1.0000e+00
			-24.3		4.6415e-03		1.0000e+00
			-24.25		4.7526e-03		1.0000e+00
			-24.2		4.8636e-03		1.0000e+00
			-24.15		4.9747e-03		1.0000e+00
			-24.1		5.0576e-03		1.0000e+00
			-24.05		5.1405e-03		1.0000e+00
			-24.0		5.2234e-03		1.0000e+00
			-23.95		5.3064e-03		1.0000e+00
			-23.9		5.5227e-03		1.0000e+00
			-23.85		5.7390e-03		1.0000e+00
			-23.8		5.9553e-03		1.0000e+00
			-23.75		6.1716e-03		1.0000e+00
			-23.7		6.2124e-03		1.0000e+00
			-23.65		6.2531e-03		1.0000e+00
			-23.6		6.2939e-03		1.0000e+00
			-23.55		6.3348e-03		1.0000e+00
			-23.5		6.6344e-03		1.0000e+00
			-23.45		6.9341e-03		1.0000e+00
			-23.4		7.2337e-03		1.0000e+00
			-23.35		7.5333e-03		1.0000e+00
			-23.3		7.5565e-03		1.0000e+00
			-23.25		7.5797e-03		1.0000e+00
			-23.2		7.6028e-03		1.0000e+00
			-23.15		7.6260e-03		1.0000e+00
			-23.1		7.9625e-03		1.0000e+00
			-23.05		8.2990e-03		1.0000e+00
			-23.0		8.6354e-03		1.0000e+00
			-22.95		8.9719e-03		1.0000e+00
			-22.9		9.0715e-03		1.0000e+00
			-22.85		9.1712e-03		1.0000e+00
			-22.8		9.2709e-03		1.0000e+00
			-22.75		9.3706e-03		1.0000e+00
			-22.7		9.6557e-03		1.0000e+00
			-22.65		9.9407e-03		1.0000e+00
			-22.6		1.0226e-02		1.0000e+00
			-22.55		1.0511e-02		1.0000e+00
			-22.5		1.0746e-02		1.0000e+00
			-22.45		1.0982e-02		1.0000e+00
			-22.4		1.1217e-02		1.0000e+00
			-22.35		1.1452e-02		1.0000e+00
			-22.3		1.1624e-02		1.0000e+00
			-22.25		1.1795e-02		1.0000e+00
			-22.2		1.1966e-02		1.0000e+00
			-22.15		1.2138e-02		1.0000e+00
			-22.1		1.2582e-02		1.0000e+00
			-22.05		1.3026e-02		1.0000e+00
			-22.0		1.3470e-02		1.0000e+00
			-21.95		1.3914e-02		1.0000e+00
			-21.9		1.3998e-02		1.0000e+00
			-21.85		1.4081e-02		1.0000e+00
			-21.8		1.4165e-02		1.0000e+00
			-21.75		1.4248e-02		1.0000e+00
			-21.7		1.4845e-02		1.0000e+00
			-21.65		1.5443e-02		1.0000e+00
			-21.6		1.6040e-02		1.0000e+00
			-21.55		1.6637e-02		1.0000e+00
			-21.5		1.6689e-02		1.0000e+00
			-21.45		1.6741e-02		1.0000e+00
			-21.4		1.6793e-02		1.0000e+00
			-21.35		1.6845e-02		1.0000e+00
			-21.3		1.7493e-02		1.0000e+00
			-21.25		1.8142e-02		1.0000e+00
			-21.2		1.8790e-02		1.0000e+00
			-21.15		1.9438e-02		1.0000e+00
			-21.1		1.9637e-02		1.0000e+00
			-21.05		1.9836e-02		1.0000e+00
			-21.0		2.0035e-02		1.0000e+00
			-20.95		2.0234e-02		1.0000e+00
			-20.9		2.0764e-02		1.0000e+00
			-20.85		2.1294e-02		1.0000e+00
			-20.8		2.1824e-02		1.0000e+00
			-20.75		2.2354e-02		1.0000e+00
			-20.7		2.2802e-02		1.0000e+00
			-20.65		2.3250e-02		1.0000e+00
			-20.6		2.3697e-02		1.0000e+00
			-20.55		2.4145e-02		1.0000e+00
			-20.5		2.4453e-02		1.0000e+00
			-20.45		2.4760e-02		1.0000e+00
			-20.4		2.5068e-02		1.0000e+00
			-20.35		2.5376e-02		1.0000e+00
			-20.3		2.6188e-02		1.0000e+00
			-20.25		2.7000e-02		1.0000e+00
			-20.2		2.7812e-02		1.0000e+00
			-20.15		2.8624e-02		1.0000e+00
			-20.1		2.8767e-02		1.0000e+00
			-20.05		2.8910e-02		1.0000e+00
			-20.0		2.9054e-02		1.0000e+00
			-19.95		2.9197e-02		1.0000e+00
			-19.9		3.0257e-02		1.0000e+00
			-19.85		3.1318e-02		1.0000e+00
			-19.8		3.2378e-02		1.0000e+00
			-19.75		3.3438e-02		1.0000e+00
			-19.7		3.3531e-02		1.0000e+00
			-19.65		3.3623e-02		1.0000e+00
			-19.6		3.3716e-02		1.0000e+00
			-19.55		3.3809e-02		1.0000e+00
			-19.5		3.4916e-02		1.0000e+00
			-19.45		3.6024e-02		1.0000e+00
			-19.4		3.7131e-02		1.0000e+00
			-19.35		3.8238e-02		1.0000e+00
			-19.3		3.8580e-02		1.0000e+00
			-19.25		3.8921e-02		1.0000e+00
			-19.2		3.9263e-02		1.0000e+00
			-19.15		3.9604e-02		1.0000e+00
			-19.1		4.0476e-02		1.0000e+00
			-19.05		4.1348e-02		1.0000e+00
			-19.0		4.2221e-02		1.0000e+00
			-18.95		4.3093e-02		1.0000e+00
			-18.9		4.3841e-02		1.0000e+00
			-18.85		4.4589e-02		1.0000e+00
			-18.8		4.5337e-02		1.0000e+00
			-18.75		4.6086e-02		1.0000e+00
			-18.7		4.6581e-02		1.0000e+00
			-18.65		4.7076e-02		1.0000e+00
			-18.6		4.7571e-02		1.0000e+00
			-18.55		4.8066e-02		1.0000e+00
			-18.5		4.9378e-02		1.0000e+00
			-18.45		5.0691e-02		1.0000e+00
			-18.4		5.2003e-02		1.0000e+00
			-18.35		5.3316e-02		1.0000e+00
			-18.3		5.3535e-02		1.0000e+00
			-18.25		5.3754e-02		1.0000e+00
			-18.2		5.3974e-02		1.0000e+00
			-18.15		5.4193e-02		1.0000e+00
			-18.1		5.5842e-02		1.0000e+00
			-18.05		5.7490e-02		1.0000e+00
			-18.0		5.9138e-02		1.0000e+00
			-17.95		6.0787e-02		1.0000e+00
			-17.9		6.0923e-02		1.0000e+00
			-17.85		6.1060e-02		1.0000e+00
			-17.8		6.1197e-02		1.0000e+00
			-17.75		6.1335e-02		1.0000e+00
			-17.7		6.3002e-02		1.0000e+00
			-17.65		6.4670e-02		1.0000e+00
			-17.6		6.6338e-02		1.0000e+00
			-17.55		6.8005e-02		1.0000e+00
			-17.5		6.8508e-02		1.0000e+00
			-17.45		6.9010e-02		1.0000e+00
			-17.4		6.9513e-02		1.0000e+00
			-17.35		7.0016e-02		1.0000e+00
			-17.3		7.1293e-02		1.0000e+00
			-17.25		7.2571e-02		1.0000e+00
			-17.2		7.3848e-02		1.0000e+00
			-17.15		7.5126e-02		1.0000e+00
			-17.1		7.6204e-02		1.0000e+00
			-17.05		7.7283e-02		1.0000e+00
			-17.0		7.8361e-02		1.0000e+00
			-16.95		7.9439e-02		1.0000e+00
			-16.9		7.9950e-02		1.0000e+00
			-16.85		8.0461e-02		1.0000e+00
			-16.8		8.0972e-02		1.0000e+00
			-16.75		8.1482e-02		1.0000e+00
			-16.7		8.1983e-02		1.0000e+00
			-16.65		8.2484e-02		1.0000e+00
			-16.6		8.2985e-02		1.0000e+00
			-16.55		8.3488e-02		1.0000e+00
			-16.5		1.0935e-01		1.0000e+00
			-16.45		1.3521e-01		1.0000e+00
			-16.4		1.6108e-01		1.0000e+00
			-16.35		1.8694e-01		1.0000e+00
			-16.3		2.1282e-01		1.0000e+00
			-16.25		2.3870e-01		1.0000e+00
			-16.2		2.6458e-01		1.0000e+00
			-16.15		2.9046e-01		1.0000e+00
			-16.1		3.1635e-01		1.0000e+00
			-16.05		3.4224e-01		1.0000e+00
			-16.0		3.6813e-01		1.0000e+00
			-15.95		3.9402e-01		1.0000e+00
			-15.9		4.1993e-01		1.0000e+00
			-15.85		4.4584e-01		1.0000e+00
			-15.8		4.7175e-01		1.0000e+00
			-15.75		4.9765e-01		1.0000e+00
			-15.7		5.0250e-01		1.0000e+00
			-15.65		5.0735e-01		1.0000e+00
			-15.6		5.1219e-01		1.0000e+00
			-15.55		5.1704e-01		1.0000e+00
			-15.5		5.2189e-01		1.0000e+00
			-15.45		5.2674e-01		1.0000e+00
			-15.4		5.3159e-01		1.0000e+00
			-15.35		5.3645e-01		1.0000e+00
			-15.3		5.4130e-01		1.0000e+00
			-15.25		5.4615e-01		1.0000e+00
			-15.2		5.5100e-01		1.0000e+00
			-15.15		5.5586e-01		1.0000e+00
			-15.1		5.6071e-01		1.0000e+00
			-15.05		5.6556e-01		1.0000e+00
			-15.0		5.7042e-01		1.0000e+00
			-14.95		5.7527e-01		1.0000e+00
			-14.9		5.8290e-01		1.0000e+00
			-14.85		5.9053e-01		1.0000e+00
			-14.8		5.9815e-01		1.0000e+00
			-14.75		6.0578e-01		1.0000e+00
			-14.7		6.1341e-01		1.0000e+00
			-14.65		6.2104e-01		1.0000e+00
			-14.6		6.2867e-01		1.0000e+00
			-14.55		6.3630e-01		1.0000e+00
			-14.5		6.4393e-01		1.0000e+00
			-14.45		6.5156e-01		1.0000e+00
			-14.4		6.5920e-01		1.0000e+00
			-14.35		6.6683e-01		1.0000e+00
			-14.3		6.7447e-01		1.0000e+00
			-14.25		6.8210e-01		1.0000e+00
			-14.2		6.8974e-01		1.0000e+00
			-14.15		6.9737e-01		1.0000e+00
			-14.1		7.0569e-01		1.0000e+00
			-14.05		7.1400e-01		1.0000e+00
			-14.0		7.2232e-01		1.0000e+00
			-13.95		7.3063e-01		1.0000e+00
			-13.9		7.3895e-01		1.0000e+00
			-13.85		7.4727e-01		1.0000e+00
			-13.8		7.5558e-01		1.0000e+00
			-13.75		7.6390e-01		1.0000e+00
			-13.7		7.7222e-01		1.0000e+00
			-13.65		7.8054e-01		1.0000e+00
			-13.6		7.8887e-01		1.0000e+00
			-13.55		7.9719e-01		1.0000e+00
			-13.5		8.0551e-01		1.0000e+00
			-13.45		8.1384e-01		1.0000e+00
			-13.4		8.2216e-01		1.0000e+00
			-13.35		8.3048e-01		1.0000e+00
			-13.3		8.3852e-01		1.0000e+00
			-13.25		8.4657e-01		1.0000e+00
			-13.2		8.5461e-01		1.0000e+00
			-13.15		8.6265e-01		1.0000e+00
			-13.1		8.7069e-01		1.0000e+00
			-13.05		8.7874e-01		1.0000e+00
			-13.0		8.8678e-01		1.0000e+00
			-12.95		8.9483e-01		1.0000e+00
			-12.9		9.0287e-01		1.0000e+00
			-12.85		9.1092e-01		1.0000e+00
			-12.8		9.1897e-01		1.0000e+00
			-12.75		9.2701e-01		1.0000e+00
			-12.7		9.3506e-01		1.0000e+00
			-12.65		9.4312e-01		1.0000e+00
			-12.6		9.5117e-01		1.0000e+00
			-12.55		9.5922e-01		1.0000e+00
			-12.5		9.8204e-01		1.0000e+00
			-12.45		1.0049e+00		1.0000e+00
			-12.4		1.0277e+00		1.0000e+00
			-12.35		1.0505e+00		1.0000e+00
			-12.3		1.0733e+00		1.0000e+00
			-12.25		1.0962e+00		1.0000e+00
			-12.2		1.1190e+00		1.0000e+00
			-12.15		1.1418e+00		1.0000e+00
			-12.1		1.1645e+00		1.0000e+00
			-12.05		1.1871e+00		1.0000e+00
			-12.0		1.2098e+00		1.0000e+00
			-11.95		1.2324e+00		1.0000e+00
			-11.9		1.2551e+00		1.0000e+00
			-11.85		1.2777e+00		1.0000e+00
			-11.8		1.3004e+00		1.0000e+00
			-11.75		1.3231e+00		1.0000e+00
			-11.7		1.4157e+00		1.0000e+00
			-11.65		1.5083e+00		1.0000e+00
			-11.6		1.6010e+00		1.0000e+00
			-11.55		1.6936e+00		1.0000e+00
			-11.5		1.9906e+00		1.0000e+00
			-11.45		2.2876e+00		1.0000e+00
			-11.4		2.5846e+00		1.0000e+00
			-11.35		2.8815e+00		1.0000e+00
			-11.3		3.1756e+00		1.0000e+00
			-11.25		3.4697e+00		1.0000e+00
			-11.2		3.7639e+00		1.0000e+00
			-11.15		4.0579e+00		1.0000e+00
			-11.1		4.2030e+00		1.0000e+00
			-11.05		4.3480e+00		1.0000e+00
			-11.0		4.4930e+00		1.0000e+00
			-10.95		4.6381e+00		1.0000e+00
			-10.9		4.6698e+00		1.0000e+00
			-10.85		4.7016e+00		1.0000e+00
			-10.8		4.7334e+00		1.0000e+00
			-10.75		4.7651e+00		1.0000e+00
			-10.7		4.7969e+00		1.0000e+00
			-10.65		4.8287e+00		1.0000e+00
			-10.6		4.8605e+00		1.0000e+00
			-10.55		4.8922e+00		1.0000e+00
			-10.5		4.9240e+00		1.0000e+00
			-10.45		4.9558e+00		1.0000e+00
			-10.4		4.9876e+00		1.0000e+00
			-10.35		5.0194e+00		1.0000e+00
			-10.3		5.0512e+00		1.0000e+00
			-10.25		5.0830e+00		1.0000e+00
			-10.2		5.1147e+00		1.0000e+00
			-10.15		5.1465e+00		1.0000e+00
			-10.1		5.1565e+00		1.0000e+00
			-10.05		5.1664e+00		1.0000e+00
			-10.0		5.1764e+00		1.0000e+00
			-9.95		5.1863e+00		1.0000e+00
			-9.9		5.1963e+00		1.0000e+00
			-9.85		5.2062e+00		1.0000e+00
			-9.8		5.2161e+00		1.0000e+00
			-9.75		5.2261e+00		1.0000e+00
			-9.7		5.2360e+00		1.0000e+00
			-9.65		5.2460e+00		1.0000e+00
			-9.6		5.2559e+00		1.0000e+00
			-9.55		5.2658e+00		1.0000e+00
			-9.5		5.2758e+00		1.0000e+00
			-9.45		5.2857e+00		1.0000e+00
			-9.4		5.2957e+00		1.0000e+00
			-9.35		5.3056e+00		1.0000e+00
			-9.3		5.3131e+00		1.0000e+00
			-9.25		5.3206e+00		1.0000e+00
			-9.2		5.3280e+00		1.0000e+00
			-9.15		5.3355e+00		1.0000e+00
			-9.1		5.3430e+00		1.0000e+00
			-9.05		5.3505e+00		1.0000e+00
			-9.0		5.3580e+00		1.0000e+00
			-8.95		5.3654e+00		1.0000e+00
			-8.9		5.3729e+00		1.0000e+00
			-8.85		5.3804e+00		1.0000e+00
			-8.8		5.3879e+00		1.0000e+00
			-8.75		5.3953e+00		1.0000e+00
			-8.7		5.4028e+00		1.0000e+00
			-8.65		5.4103e+00		1.0000e+00
			-8.6		5.4177e+00		1.0000e+00
			-8.55		5.4252e+00		1.0000e+00
			-8.5		5.4318e+00		1.0000e+00
			-8.45		5.4384e+00		1.0000e+00
			-8.4		5.4450e+00		1.0000e+00
			-8.35		5.4516e+00		1.0000e+00
			-8.3		5.4582e+00		1.0000e+00
			-8.25		5.4648e+00		1.0000e+00
			-8.2		5.4714e+00		1.0000e+00
			-8.15		5.4780e+00		1.0000e+00
			-8.1		5.4846e+00		1.0000e+00
			-8.05		5.4912e+00		1.0000e+00
			-8.0		5.4978e+00		1.0000e+00
			-7.95		5.5044e+00		1.0000e+00
			-7.9		5.5110e+00		1.0000e+00
			-7.85		5.5175e+00		1.0000e+00
			-7.8		5.5241e+00		1.0000e+00
			-7.75		5.5307e+00		1.0000e+00
			-7.7		5.5359e+00		1.0000e+00
			-7.65		5.5411e+00		1.0000e+00
			-7.6		5.5463e+00		1.0000e+00
			-7.55		5.5515e+00		1.0000e+00
			-7.5		5.5567e+00		1.0000e+00
			-7.45		5.5619e+00		1.0000e+00
			-7.4		5.5671e+00		1.0000e+00
			-7.35		5.5723e+00		1.0000e+00
			-7.3		5.5775e+00		1.0000e+00
			-7.25		5.5827e+00		1.0000e+00
			-7.2		5.5879e+00		1.0000e+00
			-7.15		5.5931e+00		1.0000e+00
			-7.1		5.5983e+00		1.0000e+00
			-7.05		5.6035e+00		1.0000e+00
			-7.0		5.6087e+00		1.0000e+00
			-6.95		5.6139e+00		1.0000e+00
			-6.9		5.6188e+00		1.0000e+00
			-6.85		5.6237e+00		1.0000e+00
			-6.8		5.6286e+00		1.0000e+00
			-6.75		5.6336e+00		1.0000e+00
			-6.7		5.6385e+00		1.0000e+00
			-6.65		5.6434e+00		1.0000e+00
			-6.6		5.6484e+00		1.0000e+00
			-6.55		5.6533e+00		1.0000e+00
			-6.5		5.6582e+00		1.0000e+00
			-6.45		5.6631e+00		1.0000e+00
			-6.4		5.6680e+00		1.0000e+00
			-6.35		5.6730e+00		1.0000e+00
			-6.3		5.6779e+00		1.0000e+00
			-6.25		5.6828e+00		1.0000e+00
			-6.2		5.6877e+00		1.0000e+00
			-6.15		5.6926e+00		1.0000e+00
			-6.1		5.6969e+00		1.0000e+00
			-6.05		5.7012e+00		1.0000e+00
			-6.0		5.7054e+00		1.0000e+00
			-5.95		5.7097e+00		1.0000e+00
			-5.9		5.7139e+00		1.0000e+00
			-5.85		5.7182e+00		1.0000e+00
			-5.8		5.7224e+00		1.0000e+00
			-5.75		5.7267e+00		1.0000e+00
			-5.7		5.7309e+00		1.0000e+00
			-5.65		5.7352e+00		1.0000e+00
			-5.6		5.7394e+00		1.0000e+00
			-5.55		5.7436e+00		1.0000e+00
			-5.5		5.7479e+00		1.0000e+00
			-5.45		5.7521e+00		1.0000e+00
			-5.4		5.7564e+00		1.0000e+00
			-5.35		5.7606e+00		1.0000e+00
			-5.3		5.7641e+00		1.0000e+00
			-5.25		5.7676e+00		1.0000e+00
			-5.2		5.7711e+00		1.0000e+00
			-5.15		5.7747e+00		1.0000e+00
			-5.1		5.7782e+00		1.0000e+00
			-5.05		5.7817e+00		1.0000e+00
			-5.0		5.7852e+00		1.0000e+00
			-4.95		5.7887e+00		1.0000e+00
			-4.9		5.7922e+00		1.0000e+00
			-4.85		5.7957e+00		1.0000e+00
			-4.8		5.7992e+00		1.0000e+00
			-4.75		5.8027e+00		1.0000e+00
			-4.7		5.8062e+00		1.0000e+00
			-4.65		5.8097e+00		1.0000e+00
			-4.6		5.8132e+00		1.0000e+00
			-4.55		5.8167e+00		1.0000e+00
			-4.5		5.8194e+00		1.0000e+00
			-4.45		5.8221e+00		1.0000e+00
			-4.4		5.8248e+00		1.0000e+00
			-4.35		5.8276e+00		1.0000e+00
			-4.3		5.8303e+00		1.0000e+00
			-4.25		5.8330e+00		1.0000e+00
			-4.2		5.8357e+00		1.0000e+00
			-4.15		5.8385e+00		1.0000e+00
			-4.1		5.8412e+00		1.0000e+00
			-4.05		5.8439e+00		1.0000e+00
			-4.0		5.8466e+00		1.0000e+00
			-3.95		5.8493e+00		1.0000e+00
			-3.9		5.8520e+00		1.0000e+00
			-3.85		5.8547e+00		1.0000e+00
			-3.8		5.8575e+00		1.0000e+00
			-3.75		5.8602e+00		1.0000e+00
			-3.7		5.8628e+00		1.0000e+00
			-3.65		5.8654e+00		1.0000e+00
			-3.6		5.8681e+00		1.0000e+00
			-3.55		5.8707e+00		1.0000e+00
			-3.5		5.8733e+00		1.0000e+00
			-3.45		5.8760e+00		1.0000e+00
			-3.4		5.8786e+00		1.0000e+00
			-3.35		5.8812e+00		1.0000e+00
			-3.3		5.8838e+00		1.0000e+00
			-3.25		5.8865e+00		1.0000e+00
			-3.2		5.8891e+00		1.0000e+00
			-3.15		5.8917e+00		1.0000e+00
			-3.1		5.8943e+00		1.0000e+00
			-3.05		5.8970e+00		1.0000e+00
			-3.0		5.8996e+00		1.0000e+00
			-2.95		5.9022e+00		1.0000e+00
			-2.9		5.9049e+00		1.0000e+00
			-2.85		5.9075e+00		1.0000e+00
			-2.8		5.9102e+00		1.0000e+00
			-2.75		5.9129e+00		1.0000e+00
			-2.7		5.9155e+00		1.0000e+00
			-2.65		5.9182e+00		1.0000e+00
			-2.6		5.9209e+00		1.0000e+00
			-2.55		5.9235e+00		1.0000e+00
			-2.5		5.9262e+00		1.0000e+00
			-2.45		5.9289e+00		1.0000e+00
			-2.4		5.9315e+00		1.0000e+00
			-2.35		5.9342e+00		1.0000e+00
			-2.3		5.9368e+00		1.0000e+00
			-2.25		5.9395e+00		1.0000e+00
			-2.2		5.9422e+00		1.0000e+00
			-2.15		5.9448e+00		1.0000e+00
			-2.1		5.9475e+00		1.0000e+00
			-2.05		5.9501e+00		1.0000e+00
			-2.0		5.9527e+00		1.0000e+00
			-1.95		5.9554e+00		1.0000e+00
			-1.9		5.9580e+00		1.0000e+00
			-1.85		5.9606e+00		1.0000e+00
			-1.8		5.9632e+00		1.0000e+00
			-1.75		5.9659e+00		1.0000e+00
			-1.7		5.9685e+00		1.0000e+00
			-1.65		5.9711e+00		1.0000e+00
			-1.6		5.9738e+00		1.0000e+00
			-1.55		5.9764e+00		1.0000e+00
			-1.5		5.9790e+00		1.0000e+00
			-1.45		5.9816e+00		1.0000e+00
			-1.4		5.9842e+00		1.0000e+00
			-1.35		5.9869e+00		1.0000e+00
			-1.3		5.9888e+00		1.0000e+00
			-1.25		5.9908e+00		1.0000e+00
			-1.2		5.9928e+00		1.0000e+00
			-1.15		5.9948e+00		1.0000e+00
			-1.1		5.9968e+00		1.0000e+00
			-1.05		5.9988e+00		1.0000e+00
			-1.0		6.0008e+00		1.0000e+00
			-0.95		6.0028e+00		1.0000e+00
			-0.9		6.0047e+00		1.0000e+00
			-0.85		6.0067e+00		1.0000e+00
			-0.8		6.0087e+00		1.0000e+00
			-0.75		6.0107e+00		1.0000e+00
			-0.7		6.0126e+00		1.0000e+00
			-0.65		6.0146e+00		1.0000e+00
			-0.6		6.0166e+00		1.0000e+00
			-0.55		6.0186e+00		1.0000e+00
			-0.5		6.0190e+00		1.0000e+00
			-0.45		6.0194e+00		1.0000e+00
			-0.4		6.0199e+00		1.0000e+00
			-0.35		6.0203e+00		1.0000e+00
			-0.3		6.0207e+00		1.0000e+00
			-0.25		6.0212e+00		1.0000e+00
			-0.2		6.0216e+00		1.0000e+00
			-0.15		6.0220e+00		1.0000e+00
			-0.1		6.0224e+00		1.0000e+00
			-0.05		6.0229e+00		1.0000e+00
			0.0		6.0233e+00		1.0000e+00
			0.05		6.0237e+00		1.0000e+00
			0.1		6.0241e+00		1.0000e+00
			0.15		6.0245e+00		1.0000e+00
			0.2		6.0249e+00		1.0000e+00
			0.25		6.0254e+00		1.0000e+00
			0.3		6.0236e+00		1.0000e+00
			0.35		6.0218e+00		1.0000e+00
			0.4		6.0200e+00		1.0000e+00
			0.45		6.0182e+00		1.0000e+00
			0.5		6.0164e+00		1.0000e+00
			0.55		6.0147e+00		1.0000e+00
			0.6		6.0129e+00		1.0000e+00
			0.65		6.0111e+00		1.0000e+00
			0.7		6.0093e+00		1.0000e+00
			0.75		6.0075e+00		1.0000e+00
			0.8		6.0057e+00		1.0000e+00
			0.85		6.0039e+00		1.0000e+00
			0.9		6.0021e+00		1.0000e+00
			0.95		6.0003e+00		1.0000e+00
			1.0		5.9985e+00		1.0000e+00
			1.05		5.9967e+00		1.0000e+00
			1.1		5.9942e+00		1.0000e+00
			1.15		5.9916e+00		1.0000e+00
			1.2		5.9891e+00		1.0000e+00
			1.25		5.9866e+00		1.0000e+00
			1.3		5.9840e+00		1.0000e+00
			1.35		5.9815e+00		1.0000e+00
			1.4		5.9789e+00		1.0000e+00
			1.45		5.9764e+00		1.0000e+00
			1.5		5.9738e+00		1.0000e+00
			1.55		5.9713e+00		1.0000e+00
			1.6		5.9688e+00		1.0000e+00
			1.65		5.9662e+00		1.0000e+00
			1.7		5.9637e+00		1.0000e+00
			1.75		5.9611e+00		1.0000e+00
			1.8		5.9586e+00		1.0000e+00
			1.85		5.9560e+00		1.0000e+00
			1.9		5.9533e+00		1.0000e+00
			1.95		5.9507e+00		1.0000e+00
			2.0		5.9480e+00		1.0000e+00
			2.05		5.9453e+00		1.0000e+00
			2.1		5.9426e+00		1.0000e+00
			2.15		5.9400e+00		1.0000e+00
			2.2		5.9373e+00		1.0000e+00
			2.25		5.9346e+00		1.0000e+00
			2.3		5.9319e+00		1.0000e+00
			2.35		5.9293e+00		1.0000e+00
			2.4		5.9266e+00		1.0000e+00
			2.45		5.9239e+00		1.0000e+00
			2.5		5.9212e+00		1.0000e+00
			2.55		5.9185e+00		1.0000e+00
			2.6		5.9158e+00		1.0000e+00
			2.65		5.9132e+00		1.0000e+00
			2.7		5.9106e+00		1.0000e+00
			2.75		5.9080e+00		1.0000e+00
			2.8		5.9054e+00		1.0000e+00
			2.85		5.9028e+00		1.0000e+00
			2.9		5.9002e+00		1.0000e+00
			2.95		5.8976e+00		1.0000e+00
			3.0		5.8951e+00		1.0000e+00
			3.05		5.8925e+00		1.0000e+00
			3.1		5.8899e+00		1.0000e+00
			3.15		5.8873e+00		1.0000e+00
			3.2		5.8847e+00		1.0000e+00
			3.25		5.8821e+00		1.0000e+00
			3.3		5.8795e+00		1.0000e+00
			3.35		5.8769e+00		1.0000e+00
			3.4		5.8743e+00		1.0000e+00
			3.45		5.8717e+00		1.0000e+00
			3.5		5.8690e+00		1.0000e+00
			3.55		5.8663e+00		1.0000e+00
			3.6		5.8636e+00		1.0000e+00
			3.65		5.8608e+00		1.0000e+00
			3.7		5.8581e+00		1.0000e+00
			3.75		5.8554e+00		1.0000e+00
			3.8		5.8527e+00		1.0000e+00
			3.85		5.8499e+00		1.0000e+00
			3.9		5.8472e+00		1.0000e+00
			3.95		5.8445e+00		1.0000e+00
			4.0		5.8418e+00		1.0000e+00
			4.05		5.8390e+00		1.0000e+00
			4.1		5.8363e+00		1.0000e+00
			4.15		5.8336e+00		1.0000e+00
			4.2		5.8308e+00		1.0000e+00
			4.25		5.8281e+00		1.0000e+00
			4.3		5.8248e+00		1.0000e+00
			4.35		5.8215e+00		1.0000e+00
			4.4		5.8182e+00		1.0000e+00
			4.45		5.8149e+00		1.0000e+00
			4.5		5.8116e+00		1.0000e+00
			4.55		5.8083e+00		1.0000e+00
			4.6		5.8050e+00		1.0000e+00
			4.65		5.8017e+00		1.0000e+00
			4.7		5.7984e+00		1.0000e+00
			4.75		5.7951e+00		1.0000e+00
			4.8		5.7918e+00		1.0000e+00
			4.85		5.7885e+00		1.0000e+00
			4.9		5.7852e+00		1.0000e+00
			4.95		5.7819e+00		1.0000e+00
			5.0		5.7786e+00		1.0000e+00
			5.05		5.7753e+00		1.0000e+00
			5.1		5.7713e+00		1.0000e+00
			5.15		5.7673e+00		1.0000e+00
			5.2		5.7633e+00		1.0000e+00
			5.25		5.7593e+00		1.0000e+00
			5.3		5.7553e+00		1.0000e+00
			5.35		5.7513e+00		1.0000e+00
			5.4		5.7473e+00		1.0000e+00
			5.45		5.7433e+00		1.0000e+00
			5.5		5.7393e+00		1.0000e+00
			5.55		5.7353e+00		1.0000e+00
			5.6		5.7313e+00		1.0000e+00
			5.65		5.7274e+00		1.0000e+00
			5.7		5.7234e+00		1.0000e+00
			5.75		5.7194e+00		1.0000e+00
			5.8		5.7153e+00		1.0000e+00
			5.85		5.7113e+00		1.0000e+00
			5.9		5.7065e+00		1.0000e+00
			5.95		5.7017e+00		1.0000e+00
			6.0		5.6969e+00		1.0000e+00
			6.05		5.6921e+00		1.0000e+00
			6.1		5.6873e+00		1.0000e+00
			6.15		5.6825e+00		1.0000e+00
			6.2		5.6777e+00		1.0000e+00
			6.25		5.6729e+00		1.0000e+00
			6.3		5.6681e+00		1.0000e+00
			6.35		5.6633e+00		1.0000e+00
			6.4		5.6585e+00		1.0000e+00
			6.45		5.6537e+00		1.0000e+00
			6.5		5.6488e+00		1.0000e+00
			6.55		5.6440e+00		1.0000e+00
			6.6		5.6392e+00		1.0000e+00
			6.65		5.6344e+00		1.0000e+00
			6.7		5.6293e+00		1.0000e+00
			6.75		5.6243e+00		1.0000e+00
			6.8		5.6192e+00		1.0000e+00
			6.85		5.6142e+00		1.0000e+00
			6.9		5.6091e+00		1.0000e+00
			6.95		5.6041e+00		1.0000e+00
			7.0		5.5990e+00		1.0000e+00
			7.05		5.5939e+00		1.0000e+00
			7.1		5.5889e+00		1.0000e+00
			7.15		5.5838e+00		1.0000e+00
			7.2		5.5788e+00		1.0000e+00
			7.25		5.5737e+00		1.0000e+00
			7.3		5.5686e+00		1.0000e+00
			7.35		5.5636e+00		1.0000e+00
			7.4		5.5585e+00		1.0000e+00
			7.45		5.5534e+00		1.0000e+00
			7.5		5.5470e+00		1.0000e+00
			7.55		5.5405e+00		1.0000e+00
			7.6		5.5341e+00		1.0000e+00
			7.65		5.5276e+00		1.0000e+00
			7.7		5.5212e+00		1.0000e+00
			7.75		5.5147e+00		1.0000e+00
			7.8		5.5083e+00		1.0000e+00
			7.85		5.5018e+00		1.0000e+00
			7.9		5.4953e+00		1.0000e+00
			7.95		5.4889e+00		1.0000e+00
			8.0		5.4824e+00		1.0000e+00
			8.05		5.4760e+00		1.0000e+00
			8.1		5.4695e+00		1.0000e+00
			8.15		5.4630e+00		1.0000e+00
			8.2		5.4566e+00		1.0000e+00
			8.25		5.4501e+00		1.0000e+00
			8.3		5.4430e+00		1.0000e+00
			8.35		5.4359e+00		1.0000e+00
			8.4		5.4288e+00		1.0000e+00
			8.45		5.4216e+00		1.0000e+00
			8.5		5.4145e+00		1.0000e+00
			8.55		5.4074e+00		1.0000e+00
			8.6		5.4002e+00		1.0000e+00
			8.65		5.3931e+00		1.0000e+00
			8.7		5.3860e+00		1.0000e+00
			8.75		5.3789e+00		1.0000e+00
			8.8		5.3717e+00		1.0000e+00
			8.85		5.3646e+00		1.0000e+00
			8.9		5.3575e+00		1.0000e+00
			8.95		5.3503e+00		1.0000e+00
			9.0		5.3432e+00		1.0000e+00
			9.05		5.3361e+00		1.0000e+00
			9.1		5.3275e+00		1.0000e+00
			9.15		5.3190e+00		1.0000e+00
			9.2		5.3104e+00		1.0000e+00
			9.25		5.3019e+00		1.0000e+00
			9.3		5.2933e+00		1.0000e+00
			9.35		5.2848e+00		1.0000e+00
			9.4		5.2762e+00		1.0000e+00
			9.45		5.2677e+00		1.0000e+00
			9.5		5.2591e+00		1.0000e+00
			9.55		5.2506e+00		1.0000e+00
			9.6		5.2420e+00		1.0000e+00
			9.65		5.2335e+00		1.0000e+00
			9.7		5.2249e+00		1.0000e+00
			9.75		5.2164e+00		1.0000e+00
			9.8		5.2078e+00		1.0000e+00
			9.85		5.1993e+00		1.0000e+00
			9.9		5.1796e+00		1.0000e+00
			9.95		5.1599e+00		1.0000e+00
			10.0		5.1402e+00		1.0000e+00
			10.05		5.1205e+00		1.0000e+00
			10.1		5.1008e+00		1.0000e+00
			10.15		5.0811e+00		1.0000e+00
			10.2		5.0614e+00		1.0000e+00
			10.25		5.0417e+00		1.0000e+00
			10.3		5.0220e+00		1.0000e+00
			10.35		5.0022e+00		1.0000e+00
			10.4		4.9825e+00		1.0000e+00
			10.45		4.9627e+00		1.0000e+00
			10.5		4.9429e+00		1.0000e+00
			10.55		4.9232e+00		1.0000e+00
			10.6		4.9034e+00		1.0000e+00
			10.65		4.8837e+00		1.0000e+00
			10.7		4.8233e+00		1.0000e+00
			10.75		4.7629e+00		1.0000e+00
			10.8		4.7025e+00		1.0000e+00
			10.85		4.6421e+00		1.0000e+00
			10.9		4.4960e+00		1.0000e+00
			10.95		4.3498e+00		1.0000e+00
			11.0		4.2036e+00		1.0000e+00
			11.05		4.0575e+00		1.0000e+00
			11.1		3.7635e+00		1.0000e+00
			11.15		3.4696e+00		1.0000e+00
			11.2		3.1757e+00		1.0000e+00
			11.25		2.8817e+00		1.0000e+00
			11.3		2.5961e+00		1.0000e+00
			11.35		2.3105e+00		1.0000e+00
			11.4		2.0249e+00		1.0000e+00
			11.45		1.7393e+00		1.0000e+00
			11.5		1.6351e+00		1.0000e+00
			11.55		1.5309e+00		1.0000e+00
			11.6		1.4267e+00		1.0000e+00
			11.65		1.3226e+00		1.0000e+00
			11.7		1.2805e+00		1.0000e+00
			11.75		1.2384e+00		1.0000e+00
			11.8		1.1963e+00		1.0000e+00
			11.85		1.1542e+00		1.0000e+00
			11.9		1.1346e+00		1.0000e+00
			11.95		1.1150e+00		1.0000e+00
			12.0		1.0954e+00		1.0000e+00
			12.05		1.0758e+00		1.0000e+00
			12.1		1.0562e+00		1.0000e+00
			12.15		1.0366e+00		1.0000e+00
			12.2		1.0169e+00		1.0000e+00
			12.25		9.9734e-01		1.0000e+00
			12.3		9.8889e-01		1.0000e+00
			12.35		9.8043e-01		1.0000e+00
			12.4		9.7197e-01		1.0000e+00
			12.45		9.6351e-01		1.0000e+00
			12.5		9.5505e-01		1.0000e+00
			12.55		9.4660e-01		1.0000e+00
			12.6		9.3814e-01		1.0000e+00
			12.65		9.2968e-01		1.0000e+00
			12.7		9.2123e-01		1.0000e+00
			12.75		9.1278e-01		1.0000e+00
			12.8		9.0433e-01		1.0000e+00
			12.85		8.9587e-01		1.0000e+00
			12.9		8.8742e-01		1.0000e+00
			12.95		8.7897e-01		1.0000e+00
			13.0		8.7052e-01		1.0000e+00
			13.05		8.6207e-01		1.0000e+00
			13.1		8.5391e-01		1.0000e+00
			13.15		8.4574e-01		1.0000e+00
			13.2		8.3757e-01		1.0000e+00
			13.25		8.2941e-01		1.0000e+00
			13.3		8.2124e-01		1.0000e+00
			13.35		8.1308e-01		1.0000e+00
			13.4		8.0492e-01		1.0000e+00
			13.45		7.9675e-01		1.0000e+00
			13.5		7.8859e-01		1.0000e+00
			13.55		7.8043e-01		1.0000e+00
			13.6		7.7227e-01		1.0000e+00
			13.65		7.6411e-01		1.0000e+00
			13.7		7.5595e-01		1.0000e+00
			13.75		7.4779e-01		1.0000e+00
			13.8		7.3964e-01		1.0000e+00
			13.85		7.3148e-01		1.0000e+00
			13.9		7.2342e-01		1.0000e+00
			13.95		7.1536e-01		1.0000e+00
