BEGIN_SCAN_DATA
	FORMAT=CC-Export V1.9                  
	FILE_CREATION_DATE=
	LAST_MODIFIED=11-Jan-2023 10:50:14
	BEGIN_SCAN  1
		TASK_NAME=RayStation Phantom Profiles & PDDs
		PROGRAM=RayStation
		COMMENT=RayStation Script Export
		MEAS_DATE=11-Jan-2023 10:50:14
		LINAC=RayStation
		MODALITY=X
		ISOCENTER=1000.00
		INPLANE_AXIS=Y
		CROSSPLANE_AXIS=X
		DEPTH_AXIS=Z
		INPLANE_AXIS_DIR=GUN_TARGET
		CROSSPLANE_AXIS_DIR=LEFT_RIGHT
		DEPTH_AXIS_DIR=UP_DOWN
		ENERGY=6.3
		NOMINAL_DMAX=20.00
		SSD=1000.0
		SCD=1000.00
		WEDGE_ANGLE=0.00
		FIELD_INPLANE=150.0
		FIELD_CROSSPLANE=100.0
		FIELD_TYPE=IRREGULAR
		GANTRY=0.00
		GANTRY_UPRIGHT_POSITION=0
		GANTRY_ROTATION=CW
		COLL_ANGLE=0.00
		REF_FIELD_DEPTH=50.00
		REF_FIELD_DEFINED=ISOCENTER
		FIELD_INPLANE=150.0
		FIELD_CROSSPLANE=100.0
		SCAN_CURVETYPE=CROSSPLANE_PROFILE
		SCAN_DEPTH=20.0
		SCAN_OFFAXIS_INPLANE=0.00
		SCAN_OFFAXIS_CROSSPLANE=0.00
		SCAN_ANGLE=0.00
		SCAN_DIAGONAL=NOT_DIAGONAL
		SCAN_DIRECTION=NEGATIVE
		MEAS_MEDIUM=WATER
		MEAS_UNIT=cGy
		INCLINATION_ANGLE=0.00
		PRESSURE=1013.20
		TEMPERATURE=20.00
		NORM_TEMPERATURE=20.00
		CORRECTION_FACTOR=1.0000;
		BEGIN_DATA
			-30.05		1.6006e-04		1.0000e+00
			-30.0		2.4008e-04		1.0000e+00
			-29.95		3.2010e-04		1.0000e+00
			-29.9		3.2295e-04		1.0000e+00
			-29.85		3.2581e-04		1.0000e+00
			-29.8		3.2867e-04		1.0000e+00
			-29.75		3.3153e-04		1.0000e+00
			-29.7		3.3381e-04		1.0000e+00
			-29.65		3.3609e-04		1.0000e+00
			-29.6		3.3837e-04		1.0000e+00
			-29.55		3.4065e-04		1.0000e+00
			-29.5		3.4426e-04		1.0000e+00
			-29.45		3.4788e-04		1.0000e+00
			-29.4		3.5149e-04		1.0000e+00
			-29.35		3.5511e-04		1.0000e+00
			-29.3		3.5773e-04		1.0000e+00
			-29.25		3.6035e-04		1.0000e+00
			-29.2		3.6296e-04		1.0000e+00
			-29.15		3.6558e-04		1.0000e+00
			-29.1		3.7042e-04		1.0000e+00
			-29.05		3.7526e-04		1.0000e+00
			-29.0		3.8010e-04		1.0000e+00
			-28.95		3.8493e-04		1.0000e+00
			-28.9		3.8810e-04		1.0000e+00
			-28.85		3.9126e-04		1.0000e+00
			-28.8		3.9443e-04		1.0000e+00
			-28.75		3.9760e-04		1.0000e+00
			-28.7		4.0378e-04		1.0000e+00
			-28.65		4.0997e-04		1.0000e+00
			-28.6		4.1616e-04		1.0000e+00
			-28.55		4.2235e-04		1.0000e+00
			-28.5		4.2615e-04		1.0000e+00
			-28.45		4.2995e-04		1.0000e+00
			-28.4		4.3375e-04		1.0000e+00
			-28.35		4.3755e-04		1.0000e+00
			-28.3		4.4566e-04		1.0000e+00
			-28.25		4.5378e-04		1.0000e+00
			-28.2		4.6189e-04		1.0000e+00
			-28.15		4.7000e-04		1.0000e+00
			-28.1		4.7463e-04		1.0000e+00
			-28.05		4.7927e-04		1.0000e+00
			-28.0		4.8390e-04		1.0000e+00
			-27.95		4.8853e-04		1.0000e+00
			-27.9		4.9894e-04		1.0000e+00
			-27.85		5.0935e-04		1.0000e+00
			-27.8		5.1977e-04		1.0000e+00
			-27.75		5.3018e-04		1.0000e+00
			-27.7		5.3583e-04		1.0000e+00
			-27.65		5.4149e-04		1.0000e+00
			-27.6		5.4715e-04		1.0000e+00
			-27.55		5.5281e-04		1.0000e+00
			-27.5		5.6630e-04		1.0000e+00
			-27.45		5.7980e-04		1.0000e+00
			-27.4		5.9329e-04		1.0000e+00
			-27.35		6.0678e-04		1.0000e+00
			-27.3		6.1344e-04		1.0000e+00
			-27.25		6.2009e-04		1.0000e+00
			-27.2		6.2674e-04		1.0000e+00
			-27.15		6.3339e-04		1.0000e+00
			-27.1		6.5133e-04		1.0000e+00
			-27.05		6.6927e-04		1.0000e+00
			-27.0		6.8722e-04		1.0000e+00
			-26.95		7.0516e-04		1.0000e+00
			-26.9		7.1340e-04		1.0000e+00
			-26.85		7.2164e-04		1.0000e+00
			-26.8		7.2988e-04		1.0000e+00
			-26.75		7.3813e-04		1.0000e+00
			-26.7		7.6183e-04		1.0000e+00
			-26.65		7.8553e-04		1.0000e+00
			-26.6		8.0923e-04		1.0000e+00
			-26.55		8.3293e-04		1.0000e+00
			-26.5		8.4286e-04		1.0000e+00
			-26.45		8.5280e-04		1.0000e+00
			-26.4		8.6274e-04		1.0000e+00
			-26.35		8.7267e-04		1.0000e+00
			-26.3		9.0457e-04		1.0000e+00
			-26.25		9.3646e-04		1.0000e+00
			-26.2		9.6835e-04		1.0000e+00
			-26.15		1.0002e-03		1.0000e+00
			-26.1		1.0123e-03		1.0000e+00
			-26.05		1.0244e-03		1.0000e+00
			-26.0		1.0365e-03		1.0000e+00
			-25.95		1.0486e-03		1.0000e+00
			-25.9		1.0907e-03		1.0000e+00
			-25.85		1.1327e-03		1.0000e+00
			-25.8		1.1747e-03		1.0000e+00
			-25.75		1.2167e-03		1.0000e+00
			-25.7		1.2315e-03		1.0000e+00
			-25.65		1.2463e-03		1.0000e+00
			-25.6		1.2611e-03		1.0000e+00
			-25.55		1.2758e-03		1.0000e+00
			-25.5		1.3319e-03		1.0000e+00
			-25.45		1.3879e-03		1.0000e+00
			-25.4		1.4440e-03		1.0000e+00
			-25.35		1.5001e-03		1.0000e+00
			-25.3		1.5180e-03		1.0000e+00
			-25.25		1.5360e-03		1.0000e+00
			-25.2		1.5539e-03		1.0000e+00
			-25.15		1.5719e-03		1.0000e+00
			-25.1		1.6444e-03		1.0000e+00
			-25.05		1.7169e-03		1.0000e+00
			-25.0		1.7894e-03		1.0000e+00
			-24.95		1.8619e-03		1.0000e+00
			-24.9		1.8835e-03		1.0000e+00
			-24.85		1.9050e-03		1.0000e+00
			-24.8		1.9266e-03		1.0000e+00
			-24.75		1.9481e-03		1.0000e+00
			-24.7		2.0423e-03		1.0000e+00
			-24.65		2.1365e-03		1.0000e+00
			-24.6		2.2307e-03		1.0000e+00
			-24.55		2.3249e-03		1.0000e+00
			-24.5		2.3502e-03		1.0000e+00
			-24.45		2.3755e-03		1.0000e+00
			-24.4		2.4009e-03		1.0000e+00
			-24.35		2.4262e-03		1.0000e+00
			-24.3		2.5499e-03		1.0000e+00
			-24.25		2.6736e-03		1.0000e+00
			-24.2		2.7973e-03		1.0000e+00
			-24.15		2.9210e-03		1.0000e+00
			-24.1		2.9529e-03		1.0000e+00
			-24.05		2.9848e-03		1.0000e+00
			-24.0		3.0167e-03		1.0000e+00
			-23.95		3.0486e-03		1.0000e+00
			-23.9		3.2075e-03		1.0000e+00
			-23.85		3.3664e-03		1.0000e+00
			-23.8		3.5254e-03		1.0000e+00
			-23.75		3.6843e-03		1.0000e+00
			-23.7		3.7223e-03		1.0000e+00
			-23.65		3.7604e-03		1.0000e+00
			-23.6		3.7984e-03		1.0000e+00
			-23.55		3.8364e-03		1.0000e+00
			-23.5		4.0401e-03		1.0000e+00
			-23.45		4.2439e-03		1.0000e+00
			-23.4		4.4476e-03		1.0000e+00
			-23.35		4.6513e-03		1.0000e+00
			-23.3		4.6966e-03		1.0000e+00
			-23.25		4.7418e-03		1.0000e+00
			-23.2		4.7871e-03		1.0000e+00
			-23.15		4.8324e-03		1.0000e+00
			-23.1		5.0917e-03		1.0000e+00
			-23.05		5.3510e-03		1.0000e+00
			-23.0		5.6103e-03		1.0000e+00
			-22.95		5.8696e-03		1.0000e+00
			-22.9		5.9244e-03		1.0000e+00
			-22.85		5.9793e-03		1.0000e+00
			-22.8		6.0341e-03		1.0000e+00
			-22.75		6.0889e-03		1.0000e+00
			-22.7		6.4188e-03		1.0000e+00
			-22.65		6.7487e-03		1.0000e+00
			-22.6		7.0786e-03		1.0000e+00
			-22.55		7.4084e-03		1.0000e+00
			-22.5		7.4737e-03		1.0000e+00
			-22.45		7.5389e-03		1.0000e+00
			-22.4		7.6042e-03		1.0000e+00
			-22.35		7.6694e-03		1.0000e+00
			-22.3		8.0803e-03		1.0000e+00
			-22.25		8.4911e-03		1.0000e+00
			-22.2		8.9019e-03		1.0000e+00
			-22.15		9.3127e-03		1.0000e+00
			-22.1		9.3952e-03		1.0000e+00
			-22.05		9.4777e-03		1.0000e+00
			-22.0		9.5603e-03		1.0000e+00
			-21.95		9.6428e-03		1.0000e+00
			-21.9		1.0150e-02		1.0000e+00
			-21.85		1.0658e-02		1.0000e+00
			-21.8		1.1166e-02		1.0000e+00
			-21.75		1.1673e-02		1.0000e+00
			-21.7		1.1772e-02		1.0000e+00
			-21.65		1.1870e-02		1.0000e+00
			-21.6		1.1969e-02		1.0000e+00
			-21.55		1.2067e-02		1.0000e+00
			-21.5		1.2697e-02		1.0000e+00
			-21.45		1.3326e-02		1.0000e+00
			-21.4		1.3956e-02		1.0000e+00
			-21.35		1.4585e-02		1.0000e+00
			-21.3		1.4708e-02		1.0000e+00
			-21.25		1.4831e-02		1.0000e+00
			-21.2		1.4953e-02		1.0000e+00
			-21.15		1.5076e-02		1.0000e+00
			-21.1		1.5843e-02		1.0000e+00
			-21.05		1.6610e-02		1.0000e+00
			-21.0		1.7377e-02		1.0000e+00
			-20.95		1.8144e-02		1.0000e+00
			-20.9		1.8287e-02		1.0000e+00
			-20.85		1.8429e-02		1.0000e+00
			-20.8		1.8572e-02		1.0000e+00
			-20.75		1.8714e-02		1.0000e+00
			-20.7		1.9647e-02		1.0000e+00
			-20.65		2.0580e-02		1.0000e+00
			-20.6		2.1512e-02		1.0000e+00
			-20.55		2.2445e-02		1.0000e+00
			-20.5		2.2616e-02		1.0000e+00
			-20.45		2.2787e-02		1.0000e+00
			-20.4		2.2958e-02		1.0000e+00
			-20.35		2.3129e-02		1.0000e+00
			-20.3		2.4246e-02		1.0000e+00
			-20.25		2.5363e-02		1.0000e+00
			-20.2		2.6480e-02		1.0000e+00
			-20.15		2.7597e-02		1.0000e+00
			-20.1		2.7808e-02		1.0000e+00
			-20.05		2.8019e-02		1.0000e+00
			-20.0		2.8230e-02		1.0000e+00
			-19.95		2.8440e-02		1.0000e+00
			-19.9		2.9775e-02		1.0000e+00
			-19.85		3.1109e-02		1.0000e+00
			-19.8		3.2443e-02		1.0000e+00
			-19.75		3.3777e-02		1.0000e+00
			-19.7		3.4034e-02		1.0000e+00
			-19.65		3.4290e-02		1.0000e+00
			-19.6		3.4547e-02		1.0000e+00
			-19.55		3.4803e-02		1.0000e+00
			-19.5		3.6362e-02		1.0000e+00
			-19.45		3.7920e-02		1.0000e+00
			-19.4		3.9479e-02		1.0000e+00
			-19.35		4.1037e-02		1.0000e+00
			-19.3		4.1359e-02		1.0000e+00
			-19.25		4.1680e-02		1.0000e+00
			-19.2		4.2001e-02		1.0000e+00
			-19.15		4.2323e-02		1.0000e+00
			-19.1		4.4143e-02		1.0000e+00
			-19.05		4.5964e-02		1.0000e+00
			-19.0		4.7785e-02		1.0000e+00
			-18.95		4.9605e-02		1.0000e+00
			-18.9		4.9989e-02		1.0000e+00
			-18.85		5.0373e-02		1.0000e+00
			-18.8		5.0757e-02		1.0000e+00
			-18.75		5.1142e-02		1.0000e+00
			-18.7		5.3243e-02		1.0000e+00
			-18.65		5.5345e-02		1.0000e+00
			-18.6		5.7447e-02		1.0000e+00
			-18.55		5.9549e-02		1.0000e+00
			-18.5		6.0036e-02		1.0000e+00
			-18.45		6.0523e-02		1.0000e+00
			-18.4		6.1010e-02		1.0000e+00
			-18.35		6.1497e-02		1.0000e+00
			-18.3		6.3886e-02		1.0000e+00
			-18.25		6.6276e-02		1.0000e+00
			-18.2		6.8665e-02		1.0000e+00
			-18.15		7.1055e-02		1.0000e+00
			-18.1		7.1634e-02		1.0000e+00
			-18.05		7.2214e-02		1.0000e+00
			-18.0		7.2794e-02		1.0000e+00
			-17.95		7.3374e-02		1.0000e+00
			-17.9		7.6080e-02		1.0000e+00
			-17.85		7.8785e-02		1.0000e+00
			-17.8		8.1491e-02		1.0000e+00
			-17.75		8.4197e-02		1.0000e+00
			-17.7		8.4898e-02		1.0000e+00
			-17.65		8.5600e-02		1.0000e+00
			-17.6		8.6301e-02		1.0000e+00
			-17.55		8.7003e-02		1.0000e+00
			-17.5		9.0051e-02		1.0000e+00
			-17.45		9.3099e-02		1.0000e+00
			-17.4		9.6147e-02		1.0000e+00
			-17.35		9.9195e-02		1.0000e+00
			-17.3		1.0003e-01		1.0000e+00
			-17.25		1.0086e-01		1.0000e+00
			-17.2		1.0169e-01		1.0000e+00
			-17.15		1.0253e-01		1.0000e+00
			-17.1		1.0594e-01		1.0000e+00
			-17.05		1.0935e-01		1.0000e+00
			-17.0		1.1277e-01		1.0000e+00
			-16.95		1.1618e-01		1.0000e+00
			-16.9		1.1716e-01		1.0000e+00
			-16.85		1.1814e-01		1.0000e+00
			-16.8		1.1912e-01		1.0000e+00
			-16.75		1.2010e-01		1.0000e+00
			-16.7		1.2383e-01		1.0000e+00
			-16.65		1.2755e-01		1.0000e+00
			-16.6		1.3127e-01		1.0000e+00
			-16.55		1.3499e-01		1.0000e+00
			-16.5		1.3617e-01		1.0000e+00
			-16.45		1.3734e-01		1.0000e+00
			-16.4		1.3852e-01		1.0000e+00
			-16.35		1.3970e-01		1.0000e+00
			-16.3		1.4377e-01		1.0000e+00
			-16.25		1.4785e-01		1.0000e+00
			-16.2		1.5192e-01		1.0000e+00
			-16.15		1.5600e-01		1.0000e+00
			-16.1		1.5737e-01		1.0000e+00
			-16.05		1.5875e-01		1.0000e+00
			-16.0		1.6012e-01		1.0000e+00
			-15.95		1.6150e-01		1.0000e+00
			-15.9		1.6588e-01		1.0000e+00
			-15.85		1.7027e-01		1.0000e+00
			-15.8		1.7465e-01		1.0000e+00
			-15.75		1.7904e-01		1.0000e+00
			-15.7		2.2964e-01		1.0000e+00
			-15.65		2.8024e-01		1.0000e+00
			-15.6		3.3084e-01		1.0000e+00
			-15.55		3.8144e-01		1.0000e+00
			-15.5		4.3204e-01		1.0000e+00
			-15.45		4.8264e-01		1.0000e+00
			-15.4		5.3323e-01		1.0000e+00
			-15.35		5.8383e-01		1.0000e+00
			-15.3		6.3446e-01		1.0000e+00
			-15.25		6.8509e-01		1.0000e+00
			-15.2		7.3572e-01		1.0000e+00
			-15.15		7.8634e-01		1.0000e+00
			-15.1		8.3701e-01		1.0000e+00
			-15.05		8.8767e-01		1.0000e+00
			-15.0		9.3833e-01		1.0000e+00
			-14.95		9.8899e-01		1.0000e+00
			-14.9		9.9690e-01		1.0000e+00
			-14.85		1.0048e+00		1.0000e+00
			-14.8		1.0127e+00		1.0000e+00
			-14.75		1.0206e+00		1.0000e+00
			-14.7		1.0285e+00		1.0000e+00
			-14.65		1.0364e+00		1.0000e+00
			-14.6		1.0444e+00		1.0000e+00
			-14.55		1.0523e+00		1.0000e+00
			-14.5		1.0602e+00		1.0000e+00
			-14.45		1.0681e+00		1.0000e+00
			-14.4		1.0760e+00		1.0000e+00
			-14.35		1.0839e+00		1.0000e+00
			-14.3		1.0918e+00		1.0000e+00
			-14.25		1.0998e+00		1.0000e+00
			-14.2		1.1077e+00		1.0000e+00
			-14.15		1.1156e+00		1.0000e+00
			-14.1		1.1238e+00		1.0000e+00
			-14.05		1.1320e+00		1.0000e+00
			-14.0		1.1402e+00		1.0000e+00
			-13.95		1.1484e+00		1.0000e+00
			-13.9		1.1566e+00		1.0000e+00
			-13.85		1.1648e+00		1.0000e+00
			-13.8		1.1731e+00		1.0000e+00
			-13.75		1.1813e+00		1.0000e+00
			-13.7		1.1895e+00		1.0000e+00
			-13.65		1.1977e+00		1.0000e+00
			-13.6		1.2059e+00		1.0000e+00
			-13.55		1.2141e+00		1.0000e+00
			-13.5		1.2223e+00		1.0000e+00
			-13.45		1.2305e+00		1.0000e+00
			-13.4		1.2388e+00		1.0000e+00
			-13.35		1.2470e+00		1.0000e+00
			-13.3		1.2598e+00		1.0000e+00
			-13.25		1.2726e+00		1.0000e+00
			-13.2		1.2854e+00		1.0000e+00
			-13.15		1.2982e+00		1.0000e+00
			-13.1		1.3110e+00		1.0000e+00
			-13.05		1.3238e+00		1.0000e+00
			-13.0		1.3366e+00		1.0000e+00
			-12.95		1.3494e+00		1.0000e+00
			-12.9		1.3623e+00		1.0000e+00
			-12.85		1.3751e+00		1.0000e+00
			-12.8		1.3879e+00		1.0000e+00
			-12.75		1.4007e+00		1.0000e+00
			-12.7		1.4135e+00		1.0000e+00
			-12.65		1.4264e+00		1.0000e+00
			-12.6		1.4392e+00		1.0000e+00
			-12.55		1.4520e+00		1.0000e+00
			-12.5		1.4732e+00		1.0000e+00
			-12.45		1.4944e+00		1.0000e+00
			-12.4		1.5157e+00		1.0000e+00
			-12.35		1.5369e+00		1.0000e+00
			-12.3		1.5581e+00		1.0000e+00
			-12.25		1.5793e+00		1.0000e+00
			-12.2		1.6006e+00		1.0000e+00
			-12.15		1.6218e+00		1.0000e+00
			-12.1		1.6430e+00		1.0000e+00
			-12.05		1.6643e+00		1.0000e+00
			-12.0		1.6855e+00		1.0000e+00
			-11.95		1.7068e+00		1.0000e+00
			-11.9		1.7280e+00		1.0000e+00
			-11.85		1.7492e+00		1.0000e+00
			-11.8		1.7705e+00		1.0000e+00
			-11.75		1.7917e+00		1.0000e+00
			-11.7		1.8161e+00		1.0000e+00
			-11.65		1.8404e+00		1.0000e+00
			-11.6		1.8647e+00		1.0000e+00
			-11.55		1.8890e+00		1.0000e+00
			-11.5		1.9134e+00		1.0000e+00
			-11.45		1.9377e+00		1.0000e+00
			-11.4		1.9620e+00		1.0000e+00
			-11.35		1.9864e+00		1.0000e+00
			-11.3		2.0107e+00		1.0000e+00
			-11.25		2.0350e+00		1.0000e+00
			-11.2		2.0593e+00		1.0000e+00
			-11.15		2.0837e+00		1.0000e+00
			-11.1		2.1080e+00		1.0000e+00
			-11.05		2.1324e+00		1.0000e+00
			-11.0		2.1567e+00		1.0000e+00
			-10.95		2.1810e+00		1.0000e+00
			-10.9		2.2505e+00		1.0000e+00
			-10.85		2.3200e+00		1.0000e+00
			-10.8		2.3895e+00		1.0000e+00
			-10.75		2.4590e+00		1.0000e+00
			-10.7		2.5285e+00		1.0000e+00
			-10.65		2.5980e+00		1.0000e+00
			-10.6		2.6676e+00		1.0000e+00
			-10.55		2.7371e+00		1.0000e+00
			-10.5		2.8767e+00		1.0000e+00
			-10.45		3.0164e+00		1.0000e+00
			-10.4		3.1561e+00		1.0000e+00
			-10.35		3.2958e+00		1.0000e+00
			-10.3		3.6760e+00		1.0000e+00
			-10.25		4.0563e+00		1.0000e+00
			-10.2		4.4366e+00		1.0000e+00
			-10.15		4.8169e+00		1.0000e+00
			-10.1		5.7386e+00		1.0000e+00
			-10.05		6.6604e+00		1.0000e+00
			-10.0		7.5821e+00		1.0000e+00
			-9.95		8.5039e+00		1.0000e+00
			-9.9		9.2492e+00		1.0000e+00
			-9.85		9.9946e+00		1.0000e+00
			-9.8		1.0740e+01		1.0000e+00
			-9.75		1.1485e+01		1.0000e+00
			-9.7		1.1793e+01		1.0000e+00
			-9.65		1.2100e+01		1.0000e+00
			-9.6		1.2408e+01		1.0000e+00
			-9.55		1.2715e+01		1.0000e+00
			-9.5		1.2837e+01		1.0000e+00
			-9.45		1.2959e+01		1.0000e+00
			-9.4		1.3080e+01		1.0000e+00
			-9.35		1.3202e+01		1.0000e+00
			-9.3		1.3272e+01		1.0000e+00
			-9.25		1.3342e+01		1.0000e+00
			-9.2		1.3411e+01		1.0000e+00
			-9.15		1.3481e+01		1.0000e+00
			-9.1		1.3506e+01		1.0000e+00
			-9.05		1.3530e+01		1.0000e+00
			-9.0		1.3555e+01		1.0000e+00
			-8.95		1.3579e+01		1.0000e+00
			-8.9		1.3627e+01		1.0000e+00
			-8.85		1.3674e+01		1.0000e+00
			-8.8		1.3721e+01		1.0000e+00
			-8.75		1.3769e+01		1.0000e+00
			-8.7		1.3816e+01		1.0000e+00
			-8.65		1.3864e+01		1.0000e+00
			-8.6		1.3911e+01		1.0000e+00
			-8.55		1.3959e+01		1.0000e+00
			-8.5		1.3982e+01		1.0000e+00
			-8.45		1.4005e+01		1.0000e+00
			-8.4		1.4028e+01		1.0000e+00
			-8.35		1.4050e+01		1.0000e+00
			-8.3		1.4073e+01		1.0000e+00
			-8.25		1.4096e+01		1.0000e+00
			-8.2		1.4119e+01		1.0000e+00
			-8.15		1.4142e+01		1.0000e+00
			-8.1		1.4165e+01		1.0000e+00
			-8.05		1.4188e+01		1.0000e+00
			-8.0		1.4211e+01		1.0000e+00
			-7.95		1.4234e+01		1.0000e+00
			-7.9		1.4257e+01		1.0000e+00
			-7.85		1.4280e+01		1.0000e+00
			-7.8		1.4303e+01		1.0000e+00
			-7.75		1.4326e+01		1.0000e+00
			-7.7		1.4345e+01		1.0000e+00
			-7.65		1.4365e+01		1.0000e+00
			-7.6		1.4384e+01		1.0000e+00
			-7.55		1.4404e+01		1.0000e+00
			-7.5		1.4424e+01		1.0000e+00
			-7.45		1.4443e+01		1.0000e+00
			-7.4		1.4463e+01		1.0000e+00
			-7.35		1.4482e+01		1.0000e+00
			-7.3		1.4502e+01		1.0000e+00
			-7.25		1.4521e+01		1.0000e+00
			-7.2		1.4541e+01		1.0000e+00
			-7.15		1.4560e+01		1.0000e+00
			-7.1		1.4580e+01		1.0000e+00
			-7.05		1.4599e+01		1.0000e+00
			-7.0		1.4619e+01		1.0000e+00
			-6.95		1.4638e+01		1.0000e+00
			-6.9		1.4655e+01		1.0000e+00
			-6.85		1.4671e+01		1.0000e+00
			-6.8		1.4688e+01		1.0000e+00
			-6.75		1.4704e+01		1.0000e+00
			-6.7		1.4721e+01		1.0000e+00
			-6.65		1.4737e+01		1.0000e+00
			-6.6		1.4753e+01		1.0000e+00
			-6.55		1.4770e+01		1.0000e+00
			-6.5		1.4786e+01		1.0000e+00
			-6.45		1.4803e+01		1.0000e+00
			-6.4		1.4819e+01		1.0000e+00
			-6.35		1.4836e+01		1.0000e+00
			-6.3		1.4852e+01		1.0000e+00
			-6.25		1.4868e+01		1.0000e+00
			-6.2		1.4885e+01		1.0000e+00
			-6.15		1.4901e+01		1.0000e+00
			-6.1		1.4916e+01		1.0000e+00
			-6.05		1.4931e+01		1.0000e+00
			-6.0		1.4946e+01		1.0000e+00
			-5.95		1.4961e+01		1.0000e+00
			-5.9		1.4976e+01		1.0000e+00
			-5.85		1.4991e+01		1.0000e+00
			-5.8		1.5007e+01		1.0000e+00
			-5.75		1.5022e+01		1.0000e+00
			-5.7		1.5037e+01		1.0000e+00
			-5.65		1.5052e+01		1.0000e+00
			-5.6		1.5067e+01		1.0000e+00
			-5.55		1.5082e+01		1.0000e+00
			-5.5		1.5097e+01		1.0000e+00
			-5.45		1.5112e+01		1.0000e+00
			-5.4		1.5127e+01		1.0000e+00
			-5.35		1.5142e+01		1.0000e+00
			-5.3		1.5154e+01		1.0000e+00
			-5.25		1.5165e+01		1.0000e+00
			-5.2		1.5177e+01		1.0000e+00
			-5.15		1.5188e+01		1.0000e+00
			-5.1		1.5200e+01		1.0000e+00
			-5.05		1.5212e+01		1.0000e+00
			-5.0		1.5223e+01		1.0000e+00
			-4.95		1.5235e+01		1.0000e+00
			-4.9		1.5247e+01		1.0000e+00
			-4.85		1.5258e+01		1.0000e+00
			-4.8		1.5270e+01		1.0000e+00
			-4.75		1.5281e+01		1.0000e+00
			-4.7		1.5293e+01		1.0000e+00
			-4.65		1.5305e+01		1.0000e+00
			-4.6		1.5316e+01		1.0000e+00
			-4.55		1.5328e+01		1.0000e+00
			-4.5		1.5335e+01		1.0000e+00
			-4.45		1.5343e+01		1.0000e+00
			-4.4		1.5351e+01		1.0000e+00
			-4.35		1.5358e+01		1.0000e+00
			-4.3		1.5366e+01		1.0000e+00
			-4.25		1.5373e+01		1.0000e+00
			-4.2		1.5381e+01		1.0000e+00
			-4.15		1.5389e+01		1.0000e+00
			-4.1		1.5396e+01		1.0000e+00
			-4.05		1.5404e+01		1.0000e+00
			-4.0		1.5411e+01		1.0000e+00
			-3.95		1.5419e+01		1.0000e+00
			-3.9		1.5426e+01		1.0000e+00
			-3.85		1.5434e+01		1.0000e+00
			-3.8		1.5442e+01		1.0000e+00
			-3.75		1.5449e+01		1.0000e+00
			-3.7		1.5456e+01		1.0000e+00
			-3.65		1.5463e+01		1.0000e+00
			-3.6		1.5470e+01		1.0000e+00
			-3.55		1.5477e+01		1.0000e+00
			-3.5		1.5484e+01		1.0000e+00
			-3.45		1.5491e+01		1.0000e+00
			-3.4		1.5498e+01		1.0000e+00
			-3.35		1.5505e+01		1.0000e+00
			-3.3		1.5512e+01		1.0000e+00
			-3.25		1.5519e+01		1.0000e+00
			-3.2		1.5526e+01		1.0000e+00
			-3.15		1.5532e+01		1.0000e+00
			-3.1		1.5539e+01		1.0000e+00
			-3.05		1.5546e+01		1.0000e+00
			-3.0		1.5553e+01		1.0000e+00
			-2.95		1.5560e+01		1.0000e+00
			-2.9		1.5565e+01		1.0000e+00
			-2.85		1.5570e+01		1.0000e+00
			-2.8		1.5575e+01		1.0000e+00
			-2.75		1.5580e+01		1.0000e+00
			-2.7		1.5585e+01		1.0000e+00
			-2.65		1.5590e+01		1.0000e+00
			-2.6		1.5595e+01		1.0000e+00
			-2.55		1.5600e+01		1.0000e+00
			-2.5		1.5605e+01		1.0000e+00
			-2.45		1.5610e+01		1.0000e+00
			-2.4		1.5614e+01		1.0000e+00
			-2.35		1.5619e+01		1.0000e+00
			-2.3		1.5624e+01		1.0000e+00
			-2.25		1.5629e+01		1.0000e+00
			-2.2		1.5634e+01		1.0000e+00
			-2.15		1.5639e+01		1.0000e+00
			-2.1		1.5641e+01		1.0000e+00
			-2.05		1.5644e+01		1.0000e+00
			-2.0		1.5646e+01		1.0000e+00
			-1.95		1.5649e+01		1.0000e+00
			-1.9		1.5651e+01		1.0000e+00
			-1.85		1.5653e+01		1.0000e+00
			-1.8		1.5656e+01		1.0000e+00
			-1.75		1.5658e+01		1.0000e+00
			-1.7		1.5661e+01		1.0000e+00
			-1.65		1.5663e+01		1.0000e+00
			-1.6		1.5665e+01		1.0000e+00
			-1.55		1.5668e+01		1.0000e+00
			-1.5		1.5670e+01		1.0000e+00
			-1.45		1.5672e+01		1.0000e+00
			-1.4		1.5675e+01		1.0000e+00
			-1.35		1.5677e+01		1.0000e+00
			-1.3		1.5679e+01		1.0000e+00
			-1.25		1.5682e+01		1.0000e+00
			-1.2		1.5684e+01		1.0000e+00
			-1.15		1.5686e+01		1.0000e+00
			-1.1		1.5689e+01		1.0000e+00
			-1.05		1.5691e+01		1.0000e+00
			-1.0		1.5693e+01		1.0000e+00
			-0.95		1.5695e+01		1.0000e+00
			-0.9		1.5698e+01		1.0000e+00
			-0.85		1.5700e+01		1.0000e+00
			-0.8		1.5702e+01		1.0000e+00
			-0.75		1.5704e+01		1.0000e+00
			-0.7		1.5707e+01		1.0000e+00
			-0.65		1.5709e+01		1.0000e+00
			-0.6		1.5711e+01		1.0000e+00
			-0.55		1.5713e+01		1.0000e+00
			-0.5		1.5713e+01		1.0000e+00
			-0.45		1.5713e+01		1.0000e+00
			-0.4		1.5713e+01		1.0000e+00
			-0.35		1.5713e+01		1.0000e+00
			-0.3		1.5713e+01		1.0000e+00
			-0.25		1.5713e+01		1.0000e+00
			-0.2		1.5713e+01		1.0000e+00
			-0.15		1.5713e+01		1.0000e+00
			-0.1		1.5713e+01		1.0000e+00
			-0.05		1.5713e+01		1.0000e+00
			0.0		1.5713e+01		1.0000e+00
			0.05		1.5713e+01		1.0000e+00
			0.1		1.5713e+01		1.0000e+00
			0.15		1.5713e+01		1.0000e+00
			0.2		1.5713e+01		1.0000e+00
			0.25		1.5713e+01		1.0000e+00
			0.3		1.5711e+01		1.0000e+00
			0.35		1.5710e+01		1.0000e+00
			0.4		1.5708e+01		1.0000e+00
			0.45		1.5706e+01		1.0000e+00
			0.5		1.5704e+01		1.0000e+00
			0.55		1.5703e+01		1.0000e+00
			0.6		1.5701e+01		1.0000e+00
			0.65		1.5699e+01		1.0000e+00
			0.7		1.5697e+01		1.0000e+00
			0.75		1.5696e+01		1.0000e+00
			0.8		1.5694e+01		1.0000e+00
			0.85		1.5692e+01		1.0000e+00
			0.9		1.5690e+01		1.0000e+00
			0.95		1.5688e+01		1.0000e+00
			1.0		1.5687e+01		1.0000e+00
			1.05		1.5685e+01		1.0000e+00
			1.1		1.5683e+01		1.0000e+00
			1.15		1.5681e+01		1.0000e+00
			1.2		1.5680e+01		1.0000e+00
			1.25		1.5678e+01		1.0000e+00
			1.3		1.5676e+01		1.0000e+00
			1.35		1.5674e+01		1.0000e+00
			1.4		1.5672e+01		1.0000e+00
			1.45		1.5670e+01		1.0000e+00
			1.5		1.5669e+01		1.0000e+00
			1.55		1.5667e+01		1.0000e+00
			1.6		1.5665e+01		1.0000e+00
			1.65		1.5663e+01		1.0000e+00
			1.7		1.5661e+01		1.0000e+00
			1.75		1.5659e+01		1.0000e+00
			1.8		1.5657e+01		1.0000e+00
			1.85		1.5656e+01		1.0000e+00
			1.9		1.5651e+01		1.0000e+00
			1.95		1.5647e+01		1.0000e+00
			2.0		1.5642e+01		1.0000e+00
			2.05		1.5638e+01		1.0000e+00
			2.1		1.5633e+01		1.0000e+00
			2.15		1.5629e+01		1.0000e+00
			2.2		1.5625e+01		1.0000e+00
			2.25		1.5620e+01		1.0000e+00
			2.3		1.5616e+01		1.0000e+00
			2.35		1.5611e+01		1.0000e+00
			2.4		1.5607e+01		1.0000e+00
			2.45		1.5602e+01		1.0000e+00
			2.5		1.5598e+01		1.0000e+00
			2.55		1.5593e+01		1.0000e+00
			2.6		1.5589e+01		1.0000e+00
			2.65		1.5584e+01		1.0000e+00
			2.7		1.5578e+01		1.0000e+00
			2.75		1.5571e+01		1.0000e+00
			2.8		1.5565e+01		1.0000e+00
			2.85		1.5559e+01		1.0000e+00
			2.9		1.5552e+01		1.0000e+00
			2.95		1.5546e+01		1.0000e+00
			3.0		1.5539e+01		1.0000e+00
			3.05		1.5533e+01		1.0000e+00
			3.1		1.5526e+01		1.0000e+00
			3.15		1.5520e+01		1.0000e+00
			3.2		1.5514e+01		1.0000e+00
			3.25		1.5507e+01		1.0000e+00
			3.3		1.5501e+01		1.0000e+00
			3.35		1.5494e+01		1.0000e+00
			3.4		1.5488e+01		1.0000e+00
			3.45		1.5481e+01		1.0000e+00
			3.5		1.5474e+01		1.0000e+00
			3.55		1.5466e+01		1.0000e+00
			3.6		1.5459e+01		1.0000e+00
			3.65		1.5451e+01		1.0000e+00
			3.7		1.5444e+01		1.0000e+00
			3.75		1.5436e+01		1.0000e+00
			3.8		1.5429e+01		1.0000e+00
			3.85		1.5421e+01		1.0000e+00
			3.9		1.5414e+01		1.0000e+00
			3.95		1.5406e+01		1.0000e+00
			4.0		1.5399e+01		1.0000e+00
			4.05		1.5391e+01		1.0000e+00
			4.1		1.5384e+01		1.0000e+00
			4.15		1.5376e+01		1.0000e+00
			4.2		1.5368e+01		1.0000e+00
			4.25		1.5361e+01		1.0000e+00
			4.3		1.5351e+01		1.0000e+00
			4.35		1.5341e+01		1.0000e+00
			4.4		1.5330e+01		1.0000e+00
			4.45		1.5320e+01		1.0000e+00
			4.5		1.5310e+01		1.0000e+00
			4.55		1.5300e+01		1.0000e+00
			4.6		1.5290e+01		1.0000e+00
			4.65		1.5279e+01		1.0000e+00
			4.7		1.5269e+01		1.0000e+00
			4.75		1.5259e+01		1.0000e+00
			4.8		1.5249e+01		1.0000e+00
			4.85		1.5239e+01		1.0000e+00
			4.9		1.5228e+01		1.0000e+00
			4.95		1.5218e+01		1.0000e+00
			5.0		1.5208e+01		1.0000e+00
			5.05		1.5198e+01		1.0000e+00
			5.1		1.5183e+01		1.0000e+00
			5.15		1.5168e+01		1.0000e+00
			5.2		1.5153e+01		1.0000e+00
			5.25		1.5139e+01		1.0000e+00
			5.3		1.5124e+01		1.0000e+00
			5.35		1.5109e+01		1.0000e+00
			5.4		1.5094e+01		1.0000e+00
			5.45		1.5080e+01		1.0000e+00
			5.5		1.5065e+01		1.0000e+00
			5.55		1.5050e+01		1.0000e+00
			5.6		1.5035e+01		1.0000e+00
			5.65		1.5020e+01		1.0000e+00
			5.7		1.5006e+01		1.0000e+00
			5.75		1.4991e+01		1.0000e+00
			5.8		1.4976e+01		1.0000e+00
			5.85		1.4961e+01		1.0000e+00
			5.9		1.4946e+01		1.0000e+00
			5.95		1.4931e+01		1.0000e+00
			6.0		1.4916e+01		1.0000e+00
			6.05		1.4901e+01		1.0000e+00
			6.1		1.4886e+01		1.0000e+00
			6.15		1.4871e+01		1.0000e+00
			6.2		1.4856e+01		1.0000e+00
			6.25		1.4841e+01		1.0000e+00
			6.3		1.4826e+01		1.0000e+00
			6.35		1.4811e+01		1.0000e+00
			6.4		1.4796e+01		1.0000e+00
			6.45		1.4780e+01		1.0000e+00
			6.5		1.4765e+01		1.0000e+00
			6.55		1.4750e+01		1.0000e+00
			6.6		1.4735e+01		1.0000e+00
			6.65		1.4720e+01		1.0000e+00
			6.7		1.4701e+01		1.0000e+00
			6.75		1.4681e+01		1.0000e+00
			6.8		1.4662e+01		1.0000e+00
			6.85		1.4642e+01		1.0000e+00
			6.9		1.4623e+01		1.0000e+00
			6.95		1.4603e+01		1.0000e+00
			7.0		1.4584e+01		1.0000e+00
			7.05		1.4564e+01		1.0000e+00
			7.1		1.4545e+01		1.0000e+00
			7.15		1.4525e+01		1.0000e+00
			7.2		1.4505e+01		1.0000e+00
			7.25		1.4486e+01		1.0000e+00
			7.3		1.4466e+01		1.0000e+00
			7.35		1.4447e+01		1.0000e+00
			7.4		1.4427e+01		1.0000e+00
			7.45		1.4408e+01		1.0000e+00
			7.5		1.4386e+01		1.0000e+00
			7.55		1.4363e+01		1.0000e+00
			7.6		1.4341e+01		1.0000e+00
			7.65		1.4319e+01		1.0000e+00
			7.7		1.4297e+01		1.0000e+00
			7.75		1.4274e+01		1.0000e+00
			7.8		1.4252e+01		1.0000e+00
			7.85		1.4230e+01		1.0000e+00
			7.9		1.4208e+01		1.0000e+00
			7.95		1.4186e+01		1.0000e+00
			8.0		1.4163e+01		1.0000e+00
			8.05		1.4141e+01		1.0000e+00
			8.1		1.4119e+01		1.0000e+00
			8.15		1.4097e+01		1.0000e+00
			8.2		1.4074e+01		1.0000e+00
			8.25		1.4052e+01		1.0000e+00
			8.3		1.4016e+01		1.0000e+00
			8.35		1.3981e+01		1.0000e+00
			8.4		1.3945e+01		1.0000e+00
			8.45		1.3909e+01		1.0000e+00
			8.5		1.3874e+01		1.0000e+00
			8.55		1.3838e+01		1.0000e+00
			8.6		1.3802e+01		1.0000e+00
			8.65		1.3767e+01		1.0000e+00
			8.7		1.3731e+01		1.0000e+00
			8.75		1.3694e+01		1.0000e+00
			8.8		1.3658e+01		1.0000e+00
			8.85		1.3622e+01		1.0000e+00
			8.9		1.3587e+01		1.0000e+00
			8.95		1.3551e+01		1.0000e+00
			9.0		1.3516e+01		1.0000e+00
			9.05		1.3481e+01		1.0000e+00
			9.1		1.3411e+01		1.0000e+00
			9.15		1.3341e+01		1.0000e+00
			9.2		1.3271e+01		1.0000e+00
			9.25		1.3202e+01		1.0000e+00
			9.3		1.3080e+01		1.0000e+00
			9.35		1.2958e+01		1.0000e+00
			9.4		1.2837e+01		1.0000e+00
			9.45		1.2715e+01		1.0000e+00
			9.5		1.2408e+01		1.0000e+00
			9.55		1.2101e+01		1.0000e+00
			9.6		1.1793e+01		1.0000e+00
			9.65		1.1486e+01		1.0000e+00
			9.7		1.0739e+01		1.0000e+00
			9.75		9.9916e+00		1.0000e+00
			9.8		9.2443e+00		1.0000e+00
			9.85		8.4969e+00		1.0000e+00
			9.9		7.5769e+00		1.0000e+00
			9.95		6.6569e+00		1.0000e+00
			10.0		5.7368e+00		1.0000e+00
			10.05		4.8169e+00		1.0000e+00
			10.1		4.4374e+00		1.0000e+00
			10.15		4.0579e+00		1.0000e+00
			10.2		3.6784e+00		1.0000e+00
			10.25		3.2989e+00		1.0000e+00
			10.3		3.1776e+00		1.0000e+00
			10.35		3.0563e+00		1.0000e+00
			10.4		2.9350e+00		1.0000e+00
			10.45		2.8137e+00		1.0000e+00
			10.5		2.6925e+00		1.0000e+00
			10.55		2.5712e+00		1.0000e+00
			10.6		2.4500e+00		1.0000e+00
			10.65		2.3288e+00		1.0000e+00
			10.7		2.3010e+00		1.0000e+00
			10.75		2.2732e+00		1.0000e+00
			10.8		2.2454e+00		1.0000e+00
			10.85		2.2176e+00		1.0000e+00
			10.9		2.1898e+00		1.0000e+00
			10.95		2.1620e+00		1.0000e+00
			11.0		2.1343e+00		1.0000e+00
			11.05		2.1065e+00		1.0000e+00
			11.1		2.0787e+00		1.0000e+00
			11.15		2.0509e+00		1.0000e+00
			11.2		2.0232e+00		1.0000e+00
			11.25		1.9954e+00		1.0000e+00
			11.3		1.9677e+00		1.0000e+00
			11.35		1.9399e+00		1.0000e+00
			11.4		1.9121e+00		1.0000e+00
			11.45		1.8844e+00		1.0000e+00
			11.5		1.8615e+00		1.0000e+00
			11.55		1.8387e+00		1.0000e+00
			11.6		1.8158e+00		1.0000e+00
			11.65		1.7930e+00		1.0000e+00
			11.7		1.7701e+00		1.0000e+00
			11.75		1.7473e+00		1.0000e+00
			11.8		1.7244e+00		1.0000e+00
			11.85		1.7016e+00		1.0000e+00
			11.9		1.6787e+00		1.0000e+00
			11.95		1.6559e+00		1.0000e+00
			12.0		1.6331e+00		1.0000e+00
			12.05		1.6102e+00		1.0000e+00
			12.1		1.5874e+00		1.0000e+00
			12.15		1.5646e+00		1.0000e+00
			12.2		1.5417e+00		1.0000e+00
			12.25		1.5189e+00		1.0000e+00
			12.3		1.5042e+00		1.0000e+00
			12.35		1.4895e+00		1.0000e+00
			12.4		1.4748e+00		1.0000e+00
			12.45		1.4600e+00		1.0000e+00
			12.5		1.4453e+00		1.0000e+00
			12.55		1.4306e+00		1.0000e+00
			12.6		1.4159e+00		1.0000e+00
			12.65		1.4012e+00		1.0000e+00
			12.7		1.3865e+00		1.0000e+00
			12.75		1.3718e+00		1.0000e+00
			12.8		1.3571e+00		1.0000e+00
			12.85		1.3424e+00		1.0000e+00
			12.9		1.3277e+00		1.0000e+00
			12.95		1.3130e+00		1.0000e+00
			13.0		1.2983e+00		1.0000e+00
			13.05		1.2836e+00		1.0000e+00
			13.1		1.2750e+00		1.0000e+00
			13.15		1.2665e+00		1.0000e+00
			13.2		1.2579e+00		1.0000e+00
			13.25		1.2494e+00		1.0000e+00
			13.3		1.2409e+00		1.0000e+00
			13.35		1.2323e+00		1.0000e+00
			13.4		1.2238e+00		1.0000e+00
			13.45		1.2153e+00		1.0000e+00
			13.5		1.2067e+00		1.0000e+00
			13.55		1.1982e+00		1.0000e+00
			13.6		1.1897e+00		1.0000e+00
			13.65		1.1811e+00		1.0000e+00
			13.7		1.1726e+00		1.0000e+00
			13.75		1.1641e+00		1.0000e+00
			13.8		1.1555e+00		1.0000e+00
			13.85		1.1470e+00		1.0000e+00
			13.9		1.1390e+00		1.0000e+00
			13.95		1.1311e+00		1.0000e+00
