BEGIN_SCAN_DATA
	FORMAT=CC-Export V1.9                  
	FILE_CREATION_DATE=
	LAST_MODIFIED=11-Jan-2023 10:50:14
	BEGIN_SCAN  1
		TASK_NAME=RayStation Phantom Profiles & PDDs
		PROGRAM=RayStation
		COMMENT=RayStation Script Export
		MEAS_DATE=11-Jan-2023 10:50:14
		LINAC=RayStation
		MODALITY=X
		ISOCENTER=1000.00
		INPLANE_AXIS=Y
		CROSSPLANE_AXIS=X
		DEPTH_AXIS=Z
		INPLANE_AXIS_DIR=GUN_TARGET
		CROSSPLANE_AXIS_DIR=LEFT_RIGHT
		DEPTH_AXIS_DIR=UP_DOWN
		ENERGY=6.3
		NOMINAL_DMAX=20.00
		SSD=1000.0
		SCD=1000.00
		WEDGE_ANGLE=0.00
		FIELD_INPLANE=150.0
		FIELD_CROSSPLANE=100.0
		FIELD_TYPE=IRREGULAR
		GANTRY=0.00
		GANTRY_UPRIGHT_POSITION=0
		GANTRY_ROTATION=CW
		COLL_ANGLE=0.00
		REF_FIELD_DEPTH=50.00
		REF_FIELD_DEFINED=ISOCENTER
		FIELD_INPLANE=150.0
		FIELD_CROSSPLANE=100.0
		SCAN_CURVETYPE=CROSSPLANE_PROFILE
		SCAN_DEPTH=50.0
		SCAN_OFFAXIS_INPLANE=0.00
		SCAN_OFFAXIS_CROSSPLANE=0.00
		SCAN_ANGLE=0.00
		SCAN_DIAGONAL=NOT_DIAGONAL
		SCAN_DIRECTION=NEGATIVE
		MEAS_MEDIUM=WATER
		MEAS_UNIT=cGy
		INCLINATION_ANGLE=0.00
		PRESSURE=1013.20
		TEMPERATURE=20.00
		NORM_TEMPERATURE=20.00
		CORRECTION_FACTOR=1.0000;
		BEGIN_DATA
			-30.05		1.4876e-04		1.0000e+00
			-30.0		2.2314e-04		1.0000e+00
			-29.95		2.9751e-04		1.0000e+00
			-29.9		2.9850e-04		1.0000e+00
			-29.85		2.9948e-04		1.0000e+00
			-29.8		3.0046e-04		1.0000e+00
			-29.75		3.0144e-04		1.0000e+00
			-29.7		3.0668e-04		1.0000e+00
			-29.65		3.1192e-04		1.0000e+00
			-29.6		3.1716e-04		1.0000e+00
			-29.55		3.2240e-04		1.0000e+00
			-29.5		3.2369e-04		1.0000e+00
			-29.45		3.2498e-04		1.0000e+00
			-29.4		3.2627e-04		1.0000e+00
			-29.35		3.2756e-04		1.0000e+00
			-29.3		3.3412e-04		1.0000e+00
			-29.25		3.4069e-04		1.0000e+00
			-29.2		3.4726e-04		1.0000e+00
			-29.15		3.5382e-04		1.0000e+00
			-29.1		3.5548e-04		1.0000e+00
			-29.05		3.5713e-04		1.0000e+00
			-29.0		3.5878e-04		1.0000e+00
			-28.95		3.6044e-04		1.0000e+00
			-28.9		3.6860e-04		1.0000e+00
			-28.85		3.7676e-04		1.0000e+00
			-28.8		3.8492e-04		1.0000e+00
			-28.75		3.9308e-04		1.0000e+00
			-28.7		3.9536e-04		1.0000e+00
			-28.65		3.9764e-04		1.0000e+00
			-28.6		3.9992e-04		1.0000e+00
			-28.55		4.0220e-04		1.0000e+00
			-28.5		4.1235e-04		1.0000e+00
			-28.45		4.2250e-04		1.0000e+00
			-28.4		4.3265e-04		1.0000e+00
			-28.35		4.4279e-04		1.0000e+00
			-28.3		4.4567e-04		1.0000e+00
			-28.25		4.4854e-04		1.0000e+00
			-28.2		4.5142e-04		1.0000e+00
			-28.15		4.5429e-04		1.0000e+00
			-28.1		4.6703e-04		1.0000e+00
			-28.05		4.7976e-04		1.0000e+00
			-28.0		4.9250e-04		1.0000e+00
			-27.95		5.0524e-04		1.0000e+00
			-27.9		5.0915e-04		1.0000e+00
			-27.85		5.1306e-04		1.0000e+00
			-27.8		5.1697e-04		1.0000e+00
			-27.75		5.2088e-04		1.0000e+00
			-27.7		5.3676e-04		1.0000e+00
			-27.65		5.5264e-04		1.0000e+00
			-27.6		5.6852e-04		1.0000e+00
			-27.55		5.8440e-04		1.0000e+00
			-27.5		5.9014e-04		1.0000e+00
			-27.45		5.9588e-04		1.0000e+00
			-27.4		6.0162e-04		1.0000e+00
			-27.35		6.0736e-04		1.0000e+00
			-27.3		6.2717e-04		1.0000e+00
			-27.25		6.4698e-04		1.0000e+00
			-27.2		6.6680e-04		1.0000e+00
			-27.15		6.8661e-04		1.0000e+00
			-27.1		6.9445e-04		1.0000e+00
			-27.05		7.0229e-04		1.0000e+00
			-27.0		7.1012e-04		1.0000e+00
			-26.95		7.1796e-04		1.0000e+00
			-26.9		7.4342e-04		1.0000e+00
			-26.85		7.6888e-04		1.0000e+00
			-26.8		7.9434e-04		1.0000e+00
			-26.75		8.1980e-04		1.0000e+00
			-26.7		8.3065e-04		1.0000e+00
			-26.65		8.4150e-04		1.0000e+00
			-26.6		8.5235e-04		1.0000e+00
			-26.55		8.6320e-04		1.0000e+00
			-26.5		8.9492e-04		1.0000e+00
			-26.45		9.2665e-04		1.0000e+00
			-26.4		9.5837e-04		1.0000e+00
			-26.35		9.9009e-04		1.0000e+00
			-26.3		1.0056e-03		1.0000e+00
			-26.25		1.0212e-03		1.0000e+00
			-26.2		1.0367e-03		1.0000e+00
			-26.15		1.0522e-03		1.0000e+00
			-26.1		1.0919e-03		1.0000e+00
			-26.05		1.1315e-03		1.0000e+00
			-26.0		1.1712e-03		1.0000e+00
			-25.95		1.2109e-03		1.0000e+00
			-25.9		1.2321e-03		1.0000e+00
			-25.85		1.2534e-03		1.0000e+00
			-25.8		1.2746e-03		1.0000e+00
			-25.75		1.2959e-03		1.0000e+00
			-25.7		1.3451e-03		1.0000e+00
			-25.65		1.3944e-03		1.0000e+00
			-25.6		1.4436e-03		1.0000e+00
			-25.55		1.4928e-03		1.0000e+00
			-25.5		1.5211e-03		1.0000e+00
			-25.45		1.5493e-03		1.0000e+00
			-25.4		1.5776e-03		1.0000e+00
			-25.35		1.6058e-03		1.0000e+00
			-25.3		1.6660e-03		1.0000e+00
			-25.25		1.7262e-03		1.0000e+00
			-25.2		1.7865e-03		1.0000e+00
			-25.15		1.8467e-03		1.0000e+00
			-25.1		1.8856e-03		1.0000e+00
			-25.05		1.9246e-03		1.0000e+00
			-25.0		1.9636e-03		1.0000e+00
			-24.95		2.0026e-03		1.0000e+00
			-24.9		2.0768e-03		1.0000e+00
			-24.85		2.1510e-03		1.0000e+00
			-24.8		2.2252e-03		1.0000e+00
			-24.75		2.2994e-03		1.0000e+00
			-24.7		2.3526e-03		1.0000e+00
			-24.65		2.4057e-03		1.0000e+00
			-24.6		2.4589e-03		1.0000e+00
			-24.55		2.5121e-03		1.0000e+00
			-24.5		2.6019e-03		1.0000e+00
			-24.45		2.6917e-03		1.0000e+00
			-24.4		2.7816e-03		1.0000e+00
			-24.35		2.8714e-03		1.0000e+00
			-24.3		2.9435e-03		1.0000e+00
			-24.25		3.0156e-03		1.0000e+00
			-24.2		3.0876e-03		1.0000e+00
			-24.15		3.1597e-03		1.0000e+00
			-24.1		3.2670e-03		1.0000e+00
			-24.05		3.3743e-03		1.0000e+00
			-24.0		3.4816e-03		1.0000e+00
			-23.95		3.5889e-03		1.0000e+00
			-23.9		3.6855e-03		1.0000e+00
			-23.85		3.7821e-03		1.0000e+00
			-23.8		3.8787e-03		1.0000e+00
			-23.75		3.9752e-03		1.0000e+00
			-23.7		4.1034e-03		1.0000e+00
			-23.65		4.2315e-03		1.0000e+00
			-23.6		4.3596e-03		1.0000e+00
			-23.55		4.4878e-03		1.0000e+00
			-23.5		4.6172e-03		1.0000e+00
			-23.45		4.7466e-03		1.0000e+00
			-23.4		4.8761e-03		1.0000e+00
			-23.35		5.0055e-03		1.0000e+00
			-23.3		5.1550e-03		1.0000e+00
			-23.25		5.3045e-03		1.0000e+00
			-23.2		5.4540e-03		1.0000e+00
			-23.15		5.6035e-03		1.0000e+00
			-23.1		5.7769e-03		1.0000e+00
			-23.05		5.9503e-03		1.0000e+00
			-23.0		6.1237e-03		1.0000e+00
			-22.95		6.2971e-03		1.0000e+00
			-22.9		6.4688e-03		1.0000e+00
			-22.85		6.6405e-03		1.0000e+00
			-22.8		6.8122e-03		1.0000e+00
			-22.75		6.9838e-03		1.0000e+00
			-22.7		7.2109e-03		1.0000e+00
			-22.65		7.4380e-03		1.0000e+00
			-22.6		7.6651e-03		1.0000e+00
			-22.55		7.8922e-03		1.0000e+00
			-22.5		8.0890e-03		1.0000e+00
			-22.45		8.2858e-03		1.0000e+00
			-22.4		8.4827e-03		1.0000e+00
			-22.35		8.6795e-03		1.0000e+00
			-22.3		8.9751e-03		1.0000e+00
			-22.25		9.2707e-03		1.0000e+00
			-22.2		9.5663e-03		1.0000e+00
			-22.15		9.8619e-03		1.0000e+00
			-22.1		1.0086e-02		1.0000e+00
			-22.05		1.0310e-02		1.0000e+00
			-22.0		1.0535e-02		1.0000e+00
			-21.95		1.0759e-02		1.0000e+00
			-21.9		1.1144e-02		1.0000e+00
			-21.85		1.1529e-02		1.0000e+00
			-21.8		1.1914e-02		1.0000e+00
			-21.75		1.2299e-02		1.0000e+00
			-21.7		1.2551e-02		1.0000e+00
			-21.65		1.2802e-02		1.0000e+00
			-21.6		1.3053e-02		1.0000e+00
			-21.55		1.3305e-02		1.0000e+00
			-21.5		1.3787e-02		1.0000e+00
			-21.45		1.4270e-02		1.0000e+00
			-21.4		1.4753e-02		1.0000e+00
			-21.35		1.5235e-02		1.0000e+00
			-21.3		1.5521e-02		1.0000e+00
			-21.25		1.5806e-02		1.0000e+00
			-21.2		1.6091e-02		1.0000e+00
			-21.15		1.6377e-02		1.0000e+00
			-21.1		1.6980e-02		1.0000e+00
			-21.05		1.7584e-02		1.0000e+00
			-21.0		1.8187e-02		1.0000e+00
			-20.95		1.8790e-02		1.0000e+00
			-20.9		1.9107e-02		1.0000e+00
			-20.85		1.9424e-02		1.0000e+00
			-20.8		1.9741e-02		1.0000e+00
			-20.75		2.0058e-02		1.0000e+00
			-20.7		2.0815e-02		1.0000e+00
			-20.65		2.1572e-02		1.0000e+00
			-20.6		2.2330e-02		1.0000e+00
			-20.55		2.3087e-02		1.0000e+00
			-20.5		2.3438e-02		1.0000e+00
			-20.45		2.3790e-02		1.0000e+00
			-20.4		2.4142e-02		1.0000e+00
			-20.35		2.4493e-02		1.0000e+00
			-20.3		2.5411e-02		1.0000e+00
			-20.25		2.6328e-02		1.0000e+00
			-20.2		2.7246e-02		1.0000e+00
			-20.15		2.8164e-02		1.0000e+00
			-20.1		2.8561e-02		1.0000e+00
			-20.05		2.8959e-02		1.0000e+00
			-20.0		2.9357e-02		1.0000e+00
			-19.95		2.9755e-02		1.0000e+00
			-19.9		3.0865e-02		1.0000e+00
			-19.85		3.1974e-02		1.0000e+00
			-19.8		3.3084e-02		1.0000e+00
			-19.75		3.4194e-02		1.0000e+00
			-19.7		3.4618e-02		1.0000e+00
			-19.65		3.5043e-02		1.0000e+00
			-19.6		3.5468e-02		1.0000e+00
			-19.55		3.5893e-02		1.0000e+00
			-19.5		3.7240e-02		1.0000e+00
			-19.45		3.8587e-02		1.0000e+00
			-19.4		3.9935e-02		1.0000e+00
			-19.35		4.1282e-02		1.0000e+00
			-19.3		4.1738e-02		1.0000e+00
			-19.25		4.2194e-02		1.0000e+00
			-19.2		4.2650e-02		1.0000e+00
			-19.15		4.3106e-02		1.0000e+00
			-19.1		4.4707e-02		1.0000e+00
			-19.05		4.6308e-02		1.0000e+00
			-19.0		4.7909e-02		1.0000e+00
			-18.95		4.9510e-02		1.0000e+00
			-18.9		4.9998e-02		1.0000e+00
			-18.85		5.0486e-02		1.0000e+00
			-18.8		5.0975e-02		1.0000e+00
			-18.75		5.1463e-02		1.0000e+00
			-18.7		5.3346e-02		1.0000e+00
			-18.65		5.5229e-02		1.0000e+00
			-18.6		5.7113e-02		1.0000e+00
			-18.55		5.8996e-02		1.0000e+00
			-18.5		5.9509e-02		1.0000e+00
			-18.45		6.0022e-02		1.0000e+00
			-18.4		6.0535e-02		1.0000e+00
			-18.35		6.1048e-02		1.0000e+00
			-18.3		6.3252e-02		1.0000e+00
			-18.25		6.5457e-02		1.0000e+00
			-18.2		6.7661e-02		1.0000e+00
			-18.15		6.9865e-02		1.0000e+00
			-18.1		7.0399e-02		1.0000e+00
			-18.05		7.0933e-02		1.0000e+00
			-18.0		7.1468e-02		1.0000e+00
			-17.95		7.2002e-02		1.0000e+00
			-17.9		7.4559e-02		1.0000e+00
			-17.85		7.7117e-02		1.0000e+00
			-17.8		7.9674e-02		1.0000e+00
			-17.75		8.2231e-02		1.0000e+00
			-17.7		8.2789e-02		1.0000e+00
			-17.65		8.3346e-02		1.0000e+00
			-17.6		8.3904e-02		1.0000e+00
			-17.55		8.4461e-02		1.0000e+00
			-17.5		8.7392e-02		1.0000e+00
			-17.45		9.0323e-02		1.0000e+00
			-17.4		9.3253e-02		1.0000e+00
			-17.35		9.6184e-02		1.0000e+00
			-17.3		9.6739e-02		1.0000e+00
			-17.25		9.7294e-02		1.0000e+00
			-17.2		9.7850e-02		1.0000e+00
			-17.15		9.8405e-02		1.0000e+00
			-17.1		1.0174e-01		1.0000e+00
			-17.05		1.0508e-01		1.0000e+00
			-17.0		1.0842e-01		1.0000e+00
			-16.95		1.1176e-01		1.0000e+00
			-16.9		1.1232e-01		1.0000e+00
			-16.85		1.1288e-01		1.0000e+00
			-16.8		1.1344e-01		1.0000e+00
			-16.75		1.1400e-01		1.0000e+00
			-16.7		1.1774e-01		1.0000e+00
			-16.65		1.2147e-01		1.0000e+00
			-16.6		1.2521e-01		1.0000e+00
			-16.55		1.2894e-01		1.0000e+00
			-16.5		1.2952e-01		1.0000e+00
			-16.45		1.3011e-01		1.0000e+00
			-16.4		1.3069e-01		1.0000e+00
			-16.35		1.3127e-01		1.0000e+00
			-16.3		1.3544e-01		1.0000e+00
			-16.25		1.3960e-01		1.0000e+00
			-16.2		1.4377e-01		1.0000e+00
			-16.15		1.4793e-01		1.0000e+00
			-16.1		1.4852e-01		1.0000e+00
			-16.05		1.4911e-01		1.0000e+00
			-16.0		1.4971e-01		1.0000e+00
			-15.95		1.5030e-01		1.0000e+00
			-15.9		1.2291e-01		1.0000e+00
			-15.85		9.5514e-02		1.0000e+00
			-15.8		6.8123e-02		1.0000e+00
			-15.75		4.0739e-02		1.0000e+00
			-15.7		9.4989e-02		1.0000e+00
			-15.65		1.4924e-01		1.0000e+00
			-15.6		2.0349e-01		1.0000e+00
			-15.55		2.5774e-01		1.0000e+00
			-15.5		3.1202e-01		1.0000e+00
			-15.45		3.6631e-01		1.0000e+00
			-15.4		4.2060e-01		1.0000e+00
			-15.35		4.7488e-01		1.0000e+00
			-15.3		5.2920e-01		1.0000e+00
			-15.25		5.8353e-01		1.0000e+00
			-15.2		6.3785e-01		1.0000e+00
			-15.15		6.9217e-01		1.0000e+00
			-15.1		7.4652e-01		1.0000e+00
			-15.05		8.0088e-01		1.0000e+00
			-15.0		8.5524e-01		1.0000e+00
			-14.95		9.0959e-01		1.0000e+00
			-14.9		9.1564e-01		1.0000e+00
			-14.85		9.2169e-01		1.0000e+00
			-14.8		9.2774e-01		1.0000e+00
			-14.75		9.3379e-01		1.0000e+00
			-14.7		9.3984e-01		1.0000e+00
			-14.65		9.4590e-01		1.0000e+00
			-14.6		9.5195e-01		1.0000e+00
			-14.55		9.5801e-01		1.0000e+00
			-14.5		9.6406e-01		1.0000e+00
			-14.45		9.7012e-01		1.0000e+00
			-14.4		9.7617e-01		1.0000e+00
			-14.35		9.8223e-01		1.0000e+00
			-14.3		9.8829e-01		1.0000e+00
			-14.25		9.9435e-01		1.0000e+00
			-14.2		1.0004e+00		1.0000e+00
			-14.15		1.0065e+00		1.0000e+00
			-14.1		1.0148e+00		1.0000e+00
			-14.05		1.0231e+00		1.0000e+00
			-14.0		1.0315e+00		1.0000e+00
			-13.95		1.0398e+00		1.0000e+00
			-13.9		1.0482e+00		1.0000e+00
			-13.85		1.0565e+00		1.0000e+00
			-13.8		1.0649e+00		1.0000e+00
			-13.75		1.0732e+00		1.0000e+00
			-13.7		1.0816e+00		1.0000e+00
			-13.65		1.0899e+00		1.0000e+00
			-13.6		1.0983e+00		1.0000e+00
			-13.55		1.1066e+00		1.0000e+00
			-13.5		1.1150e+00		1.0000e+00
			-13.45		1.1233e+00		1.0000e+00
			-13.4		1.1317e+00		1.0000e+00
			-13.35		1.1400e+00		1.0000e+00
			-13.3		1.1539e+00		1.0000e+00
			-13.25		1.1679e+00		1.0000e+00
			-13.2		1.1818e+00		1.0000e+00
			-13.15		1.1957e+00		1.0000e+00
			-13.1		1.2096e+00		1.0000e+00
			-13.05		1.2235e+00		1.0000e+00
			-13.0		1.2375e+00		1.0000e+00
			-12.95		1.2514e+00		1.0000e+00
			-12.9		1.2653e+00		1.0000e+00
			-12.85		1.2792e+00		1.0000e+00
			-12.8		1.2932e+00		1.0000e+00
			-12.75		1.3071e+00		1.0000e+00
			-12.7		1.3210e+00		1.0000e+00
			-12.65		1.3350e+00		1.0000e+00
			-12.6		1.3489e+00		1.0000e+00
			-12.55		1.3629e+00		1.0000e+00
			-12.5		1.3826e+00		1.0000e+00
			-12.45		1.4023e+00		1.0000e+00
			-12.4		1.4221e+00		1.0000e+00
			-12.35		1.4418e+00		1.0000e+00
			-12.3		1.4615e+00		1.0000e+00
			-12.25		1.4813e+00		1.0000e+00
			-12.2		1.5010e+00		1.0000e+00
			-12.15		1.5208e+00		1.0000e+00
			-12.1		1.5405e+00		1.0000e+00
			-12.05		1.5603e+00		1.0000e+00
			-12.0		1.5800e+00		1.0000e+00
			-11.95		1.5998e+00		1.0000e+00
			-11.9		1.6196e+00		1.0000e+00
			-11.85		1.6393e+00		1.0000e+00
			-11.8		1.6591e+00		1.0000e+00
			-11.75		1.6789e+00		1.0000e+00
			-11.7		1.7035e+00		1.0000e+00
			-11.65		1.7282e+00		1.0000e+00
			-11.6		1.7528e+00		1.0000e+00
			-11.55		1.7775e+00		1.0000e+00
			-11.5		1.8021e+00		1.0000e+00
			-11.45		1.8268e+00		1.0000e+00
			-11.4		1.8515e+00		1.0000e+00
			-11.35		1.8761e+00		1.0000e+00
			-11.3		1.9008e+00		1.0000e+00
			-11.25		1.9254e+00		1.0000e+00
			-11.2		1.9501e+00		1.0000e+00
			-11.15		1.9747e+00		1.0000e+00
			-11.1		1.9994e+00		1.0000e+00
			-11.05		2.0241e+00		1.0000e+00
			-11.0		2.0487e+00		1.0000e+00
			-10.95		2.0734e+00		1.0000e+00
			-10.9		2.1650e+00		1.0000e+00
			-10.85		2.2566e+00		1.0000e+00
			-10.8		2.3481e+00		1.0000e+00
			-10.75		2.4397e+00		1.0000e+00
			-10.7		2.5312e+00		1.0000e+00
			-10.65		2.6227e+00		1.0000e+00
			-10.6		2.7142e+00		1.0000e+00
			-10.55		2.8058e+00		1.0000e+00
			-10.5		3.2026e+00		1.0000e+00
			-10.45		3.5995e+00		1.0000e+00
			-10.4		3.9964e+00		1.0000e+00
			-10.35		4.3933e+00		1.0000e+00
			-10.3		5.1928e+00		1.0000e+00
			-10.25		5.9922e+00		1.0000e+00
			-10.2		6.7917e+00		1.0000e+00
			-10.15		7.5911e+00		1.0000e+00
			-10.1		8.1628e+00		1.0000e+00
			-10.05		8.7345e+00		1.0000e+00
			-10.0		9.3062e+00		1.0000e+00
			-9.95		9.8779e+00		1.0000e+00
			-9.9		1.0109e+01		1.0000e+00
			-9.85		1.0339e+01		1.0000e+00
			-9.8		1.0570e+01		1.0000e+00
			-9.75		1.0801e+01		1.0000e+00
			-9.7		1.0897e+01		1.0000e+00
			-9.65		1.0993e+01		1.0000e+00
			-9.6		1.1089e+01		1.0000e+00
			-9.55		1.1184e+01		1.0000e+00
			-9.5		1.1242e+01		1.0000e+00
			-9.45		1.1299e+01		1.0000e+00
			-9.4		1.1356e+01		1.0000e+00
			-9.35		1.1413e+01		1.0000e+00
			-9.3		1.1443e+01		1.0000e+00
			-9.25		1.1473e+01		1.0000e+00
			-9.2		1.1503e+01		1.0000e+00
			-9.15		1.1533e+01		1.0000e+00
			-9.1		1.1562e+01		1.0000e+00
			-9.05		1.1592e+01		1.0000e+00
			-9.0		1.1621e+01		1.0000e+00
			-8.95		1.1651e+01		1.0000e+00
			-8.9		1.1681e+01		1.0000e+00
			-8.85		1.1710e+01		1.0000e+00
			-8.8		1.1740e+01		1.0000e+00
			-8.75		1.1770e+01		1.0000e+00
			-8.7		1.1799e+01		1.0000e+00
			-8.65		1.1829e+01		1.0000e+00
			-8.6		1.1858e+01		1.0000e+00
			-8.55		1.1888e+01		1.0000e+00
			-8.5		1.1907e+01		1.0000e+00
			-8.45		1.1925e+01		1.0000e+00
			-8.4		1.1943e+01		1.0000e+00
			-8.35		1.1962e+01		1.0000e+00
			-8.3		1.1980e+01		1.0000e+00
			-8.25		1.1998e+01		1.0000e+00
			-8.2		1.2017e+01		1.0000e+00
			-8.15		1.2035e+01		1.0000e+00
			-8.1		1.2054e+01		1.0000e+00
			-8.05		1.2072e+01		1.0000e+00
			-8.0		1.2090e+01		1.0000e+00
			-7.95		1.2109e+01		1.0000e+00
			-7.9		1.2127e+01		1.0000e+00
			-7.85		1.2146e+01		1.0000e+00
			-7.8		1.2164e+01		1.0000e+00
			-7.75		1.2182e+01		1.0000e+00
			-7.7		1.2199e+01		1.0000e+00
			-7.65		1.2216e+01		1.0000e+00
			-7.6		1.2232e+01		1.0000e+00
			-7.55		1.2249e+01		1.0000e+00
			-7.5		1.2266e+01		1.0000e+00
			-7.45		1.2282e+01		1.0000e+00
			-7.4		1.2299e+01		1.0000e+00
			-7.35		1.2316e+01		1.0000e+00
			-7.3		1.2332e+01		1.0000e+00
			-7.25		1.2349e+01		1.0000e+00
			-7.2		1.2366e+01		1.0000e+00
			-7.15		1.2382e+01		1.0000e+00
			-7.1		1.2399e+01		1.0000e+00
			-7.05		1.2416e+01		1.0000e+00
			-7.0		1.2432e+01		1.0000e+00
			-6.95		1.2449e+01		1.0000e+00
			-6.9		1.2462e+01		1.0000e+00
			-6.85		1.2475e+01		1.0000e+00
			-6.8		1.2488e+01		1.0000e+00
			-6.75		1.2501e+01		1.0000e+00
			-6.7		1.2514e+01		1.0000e+00
			-6.65		1.2527e+01		1.0000e+00
			-6.6		1.2541e+01		1.0000e+00
			-6.55		1.2554e+01		1.0000e+00
			-6.5		1.2567e+01		1.0000e+00
			-6.45		1.2580e+01		1.0000e+00
			-6.4		1.2593e+01		1.0000e+00
			-6.35		1.2606e+01		1.0000e+00
			-6.3		1.2619e+01		1.0000e+00
			-6.25		1.2632e+01		1.0000e+00
			-6.2		1.2645e+01		1.0000e+00
			-6.15		1.2658e+01		1.0000e+00
			-6.1		1.2669e+01		1.0000e+00
			-6.05		1.2680e+01		1.0000e+00
			-6.0		1.2691e+01		1.0000e+00
			-5.95		1.2702e+01		1.0000e+00
			-5.9		1.2713e+01		1.0000e+00
			-5.85		1.2724e+01		1.0000e+00
			-5.8		1.2735e+01		1.0000e+00
			-5.75		1.2746e+01		1.0000e+00
			-5.7		1.2757e+01		1.0000e+00
			-5.65		1.2768e+01		1.0000e+00
			-5.6		1.2780e+01		1.0000e+00
			-5.55		1.2791e+01		1.0000e+00
			-5.5		1.2802e+01		1.0000e+00
			-5.45		1.2813e+01		1.0000e+00
			-5.4		1.2824e+01		1.0000e+00
			-5.35		1.2835e+01		1.0000e+00
			-5.3		1.2844e+01		1.0000e+00
			-5.25		1.2854e+01		1.0000e+00
			-5.2		1.2863e+01		1.0000e+00
			-5.15		1.2873e+01		1.0000e+00
			-5.1		1.2882e+01		1.0000e+00
			-5.05		1.2891e+01		1.0000e+00
			-5.0		1.2901e+01		1.0000e+00
			-4.95		1.2910e+01		1.0000e+00
			-4.9		1.2920e+01		1.0000e+00
			-4.85		1.2929e+01		1.0000e+00
			-4.8		1.2939e+01		1.0000e+00
			-4.75		1.2948e+01		1.0000e+00
			-4.7		1.2958e+01		1.0000e+00
			-4.65		1.2967e+01		1.0000e+00
			-4.6		1.2977e+01		1.0000e+00
			-4.55		1.2986e+01		1.0000e+00
			-4.5		1.2993e+01		1.0000e+00
			-4.45		1.2999e+01		1.0000e+00
			-4.4		1.3006e+01		1.0000e+00
			-4.35		1.3013e+01		1.0000e+00
			-4.3		1.3019e+01		1.0000e+00
			-4.25		1.3026e+01		1.0000e+00
			-4.2		1.3033e+01		1.0000e+00
			-4.15		1.3039e+01		1.0000e+00
			-4.1		1.3046e+01		1.0000e+00
			-4.05		1.3053e+01		1.0000e+00
			-4.0		1.3059e+01		1.0000e+00
			-3.95		1.3066e+01		1.0000e+00
			-3.9		1.3072e+01		1.0000e+00
			-3.85		1.3079e+01		1.0000e+00
			-3.8		1.3086e+01		1.0000e+00
			-3.75		1.3092e+01		1.0000e+00
			-3.7		1.3099e+01		1.0000e+00
			-3.65		1.3105e+01		1.0000e+00
			-3.6		1.3111e+01		1.0000e+00
			-3.55		1.3118e+01		1.0000e+00
			-3.5		1.3124e+01		1.0000e+00
			-3.45		1.3130e+01		1.0000e+00
			-3.4		1.3136e+01		1.0000e+00
			-3.35		1.3143e+01		1.0000e+00
			-3.3		1.3149e+01		1.0000e+00
			-3.25		1.3155e+01		1.0000e+00
			-3.2		1.3161e+01		1.0000e+00
			-3.15		1.3168e+01		1.0000e+00
			-3.1		1.3174e+01		1.0000e+00
			-3.05		1.3180e+01		1.0000e+00
			-3.0		1.3186e+01		1.0000e+00
			-2.95		1.3193e+01		1.0000e+00
			-2.9		1.3198e+01		1.0000e+00
			-2.85		1.3203e+01		1.0000e+00
			-2.8		1.3207e+01		1.0000e+00
			-2.75		1.3212e+01		1.0000e+00
			-2.7		1.3217e+01		1.0000e+00
			-2.65		1.3222e+01		1.0000e+00
			-2.6		1.3227e+01		1.0000e+00
			-2.55		1.3232e+01		1.0000e+00
			-2.5		1.3237e+01		1.0000e+00
			-2.45		1.3242e+01		1.0000e+00
			-2.4		1.3247e+01		1.0000e+00
			-2.35		1.3252e+01		1.0000e+00
			-2.3		1.3257e+01		1.0000e+00
			-2.25		1.3261e+01		1.0000e+00
			-2.2		1.3266e+01		1.0000e+00
			-2.15		1.3271e+01		1.0000e+00
			-2.1		1.3275e+01		1.0000e+00
			-2.05		1.3278e+01		1.0000e+00
			-2.0		1.3282e+01		1.0000e+00
			-1.95		1.3286e+01		1.0000e+00
			-1.9		1.3289e+01		1.0000e+00
			-1.85		1.3293e+01		1.0000e+00
			-1.8		1.3296e+01		1.0000e+00
			-1.75		1.3300e+01		1.0000e+00
			-1.7		1.3304e+01		1.0000e+00
			-1.65		1.3307e+01		1.0000e+00
			-1.6		1.3311e+01		1.0000e+00
			-1.55		1.3314e+01		1.0000e+00
			-1.5		1.3318e+01		1.0000e+00
			-1.45		1.3321e+01		1.0000e+00
			-1.4		1.3325e+01		1.0000e+00
			-1.35		1.3329e+01		1.0000e+00
			-1.3		1.3330e+01		1.0000e+00
			-1.25		1.3332e+01		1.0000e+00
			-1.2		1.3334e+01		1.0000e+00
			-1.15		1.3335e+01		1.0000e+00
			-1.1		1.3337e+01		1.0000e+00
			-1.05		1.3338e+01		1.0000e+00
			-1.0		1.3340e+01		1.0000e+00
			-0.95		1.3342e+01		1.0000e+00
			-0.9		1.3343e+01		1.0000e+00
			-0.85		1.3345e+01		1.0000e+00
			-0.8		1.3346e+01		1.0000e+00
			-0.75		1.3348e+01		1.0000e+00
			-0.7		1.3350e+01		1.0000e+00
			-0.65		1.3351e+01		1.0000e+00
			-0.6		1.3353e+01		1.0000e+00
			-0.55		1.3354e+01		1.0000e+00
			-0.5		1.3355e+01		1.0000e+00
			-0.45		1.3355e+01		1.0000e+00
			-0.4		1.3356e+01		1.0000e+00
			-0.35		1.3356e+01		1.0000e+00
			-0.3		1.3357e+01		1.0000e+00
			-0.25		1.3357e+01		1.0000e+00
			-0.2		1.3357e+01		1.0000e+00
			-0.15		1.3358e+01		1.0000e+00
			-0.1		1.3358e+01		1.0000e+00
			-0.05		1.3359e+01		1.0000e+00
			0.0		1.3359e+01		1.0000e+00
			0.05		1.3359e+01		1.0000e+00
			0.1		1.3360e+01		1.0000e+00
			0.15		1.3360e+01		1.0000e+00
			0.2		1.3361e+01		1.0000e+00
			0.25		1.3361e+01		1.0000e+00
			0.3		1.3360e+01		1.0000e+00
			0.35		1.3358e+01		1.0000e+00
			0.4		1.3357e+01		1.0000e+00
			0.45		1.3355e+01		1.0000e+00
			0.5		1.3354e+01		1.0000e+00
			0.55		1.3353e+01		1.0000e+00
			0.6		1.3351e+01		1.0000e+00
			0.65		1.3350e+01		1.0000e+00
			0.7		1.3349e+01		1.0000e+00
			0.75		1.3347e+01		1.0000e+00
			0.8		1.3346e+01		1.0000e+00
			0.85		1.3344e+01		1.0000e+00
			0.9		1.3343e+01		1.0000e+00
			0.95		1.3342e+01		1.0000e+00
			1.0		1.3340e+01		1.0000e+00
			1.05		1.3339e+01		1.0000e+00
			1.1		1.3336e+01		1.0000e+00
			1.15		1.3332e+01		1.0000e+00
			1.2		1.3329e+01		1.0000e+00
			1.25		1.3326e+01		1.0000e+00
			1.3		1.3323e+01		1.0000e+00
			1.35		1.3320e+01		1.0000e+00
			1.4		1.3317e+01		1.0000e+00
			1.45		1.3314e+01		1.0000e+00
			1.5		1.3310e+01		1.0000e+00
			1.55		1.3307e+01		1.0000e+00
			1.6		1.3304e+01		1.0000e+00
			1.65		1.3301e+01		1.0000e+00
			1.7		1.3298e+01		1.0000e+00
			1.75		1.3294e+01		1.0000e+00
			1.8		1.3291e+01		1.0000e+00
			1.85		1.3288e+01		1.0000e+00
			1.9		1.3284e+01		1.0000e+00
			1.95		1.3279e+01		1.0000e+00
			2.0		1.3275e+01		1.0000e+00
			2.05		1.3271e+01		1.0000e+00
			2.1		1.3266e+01		1.0000e+00
			2.15		1.3262e+01		1.0000e+00
			2.2		1.3257e+01		1.0000e+00
			2.25		1.3253e+01		1.0000e+00
			2.3		1.3249e+01		1.0000e+00
			2.35		1.3244e+01		1.0000e+00
			2.4		1.3240e+01		1.0000e+00
			2.45		1.3235e+01		1.0000e+00
			2.5		1.3231e+01		1.0000e+00
			2.55		1.3226e+01		1.0000e+00
			2.6		1.3222e+01		1.0000e+00
			2.65		1.3218e+01		1.0000e+00
			2.7		1.3211e+01		1.0000e+00
			2.75		1.3205e+01		1.0000e+00
			2.8		1.3199e+01		1.0000e+00
			2.85		1.3193e+01		1.0000e+00
			2.9		1.3187e+01		1.0000e+00
			2.95		1.3181e+01		1.0000e+00
			3.0		1.3175e+01		1.0000e+00
			3.05		1.3168e+01		1.0000e+00
			3.1		1.3162e+01		1.0000e+00
			3.15		1.3156e+01		1.0000e+00
			3.2		1.3150e+01		1.0000e+00
			3.25		1.3144e+01		1.0000e+00
			3.3		1.3137e+01		1.0000e+00
			3.35		1.3131e+01		1.0000e+00
			3.4		1.3125e+01		1.0000e+00
			3.45		1.3119e+01		1.0000e+00
			3.5		1.3113e+01		1.0000e+00
			3.55		1.3107e+01		1.0000e+00
			3.6		1.3101e+01		1.0000e+00
			3.65		1.3095e+01		1.0000e+00
			3.7		1.3088e+01		1.0000e+00
			3.75		1.3082e+01		1.0000e+00
			3.8		1.3076e+01		1.0000e+00
			3.85		1.3070e+01		1.0000e+00
			3.9		1.3064e+01		1.0000e+00
			3.95		1.3058e+01		1.0000e+00
			4.0		1.3052e+01		1.0000e+00
			4.05		1.3046e+01		1.0000e+00
			4.1		1.3040e+01		1.0000e+00
			4.15		1.3034e+01		1.0000e+00
			4.2		1.3028e+01		1.0000e+00
			4.25		1.3021e+01		1.0000e+00
			4.3		1.3012e+01		1.0000e+00
			4.35		1.3003e+01		1.0000e+00
			4.4		1.2994e+01		1.0000e+00
			4.45		1.2985e+01		1.0000e+00
			4.5		1.2976e+01		1.0000e+00
			4.55		1.2967e+01		1.0000e+00
			4.6		1.2958e+01		1.0000e+00
			4.65		1.2949e+01		1.0000e+00
			4.7		1.2940e+01		1.0000e+00
			4.75		1.2931e+01		1.0000e+00
			4.8		1.2922e+01		1.0000e+00
			4.85		1.2913e+01		1.0000e+00
			4.9		1.2904e+01		1.0000e+00
			4.95		1.2895e+01		1.0000e+00
			5.0		1.2886e+01		1.0000e+00
			5.05		1.2877e+01		1.0000e+00
			5.1		1.2866e+01		1.0000e+00
			5.15		1.2856e+01		1.0000e+00
			5.2		1.2845e+01		1.0000e+00
			5.25		1.2835e+01		1.0000e+00
			5.3		1.2824e+01		1.0000e+00
			5.35		1.2813e+01		1.0000e+00
			5.4		1.2803e+01		1.0000e+00
			5.45		1.2792e+01		1.0000e+00
			5.5		1.2782e+01		1.0000e+00
			5.55		1.2771e+01		1.0000e+00
			5.6		1.2761e+01		1.0000e+00
			5.65		1.2750e+01		1.0000e+00
			5.7		1.2739e+01		1.0000e+00
			5.75		1.2729e+01		1.0000e+00
			5.8		1.2718e+01		1.0000e+00
			5.85		1.2708e+01		1.0000e+00
			5.9		1.2695e+01		1.0000e+00
			5.95		1.2683e+01		1.0000e+00
			6.0		1.2670e+01		1.0000e+00
			6.05		1.2658e+01		1.0000e+00
			6.1		1.2645e+01		1.0000e+00
			6.15		1.2632e+01		1.0000e+00
			6.2		1.2620e+01		1.0000e+00
			6.25		1.2607e+01		1.0000e+00
			6.3		1.2595e+01		1.0000e+00
			6.35		1.2582e+01		1.0000e+00
			6.4		1.2570e+01		1.0000e+00
			6.45		1.2557e+01		1.0000e+00
			6.5		1.2545e+01		1.0000e+00
			6.55		1.2532e+01		1.0000e+00
			6.6		1.2519e+01		1.0000e+00
			6.65		1.2507e+01		1.0000e+00
			6.7		1.2491e+01		1.0000e+00
			6.75		1.2475e+01		1.0000e+00
			6.8		1.2460e+01		1.0000e+00
			6.85		1.2444e+01		1.0000e+00
			6.9		1.2428e+01		1.0000e+00
			6.95		1.2412e+01		1.0000e+00
			7.0		1.2397e+01		1.0000e+00
			7.05		1.2381e+01		1.0000e+00
			7.1		1.2365e+01		1.0000e+00
			7.15		1.2349e+01		1.0000e+00
			7.2		1.2333e+01		1.0000e+00
			7.25		1.2318e+01		1.0000e+00
			7.3		1.2302e+01		1.0000e+00
			7.35		1.2286e+01		1.0000e+00
			7.4		1.2270e+01		1.0000e+00
			7.45		1.2255e+01		1.0000e+00
			7.5		1.2237e+01		1.0000e+00
			7.55		1.2219e+01		1.0000e+00
			7.6		1.2201e+01		1.0000e+00
			7.65		1.2183e+01		1.0000e+00
			7.7		1.2165e+01		1.0000e+00
			7.75		1.2147e+01		1.0000e+00
			7.8		1.2130e+01		1.0000e+00
			7.85		1.2112e+01		1.0000e+00
			7.9		1.2094e+01		1.0000e+00
			7.95		1.2076e+01		1.0000e+00
			8.0		1.2058e+01		1.0000e+00
			8.05		1.2040e+01		1.0000e+00
			8.1		1.2022e+01		1.0000e+00
			8.15		1.2005e+01		1.0000e+00
			8.2		1.1987e+01		1.0000e+00
			8.25		1.1969e+01		1.0000e+00
			8.3		1.1944e+01		1.0000e+00
			8.35		1.1920e+01		1.0000e+00
			8.4		1.1896e+01		1.0000e+00
			8.45		1.1871e+01		1.0000e+00
			8.5		1.1847e+01		1.0000e+00
			8.55		1.1822e+01		1.0000e+00
			8.6		1.1798e+01		1.0000e+00
			8.65		1.1774e+01		1.0000e+00
			8.7		1.1749e+01		1.0000e+00
			8.75		1.1725e+01		1.0000e+00
			8.8		1.1701e+01		1.0000e+00
			8.85		1.1676e+01		1.0000e+00
			8.9		1.1652e+01		1.0000e+00
			8.95		1.1627e+01		1.0000e+00
			9.0		1.1603e+01		1.0000e+00
			9.05		1.1579e+01		1.0000e+00
			9.1		1.1537e+01		1.0000e+00
			9.15		1.1495e+01		1.0000e+00
			9.2		1.1453e+01		1.0000e+00
			9.25		1.1411e+01		1.0000e+00
			9.3		1.1355e+01		1.0000e+00
			9.35		1.1298e+01		1.0000e+00
			9.4		1.1242e+01		1.0000e+00
			9.45		1.1185e+01		1.0000e+00
			9.5		1.1089e+01		1.0000e+00
			9.55		1.0993e+01		1.0000e+00
			9.6		1.0898e+01		1.0000e+00
			9.65		1.0802e+01		1.0000e+00
			9.7		1.0571e+01		1.0000e+00
			9.75		1.0339e+01		1.0000e+00
			9.8		1.0108e+01		1.0000e+00
			9.85		9.8770e+00		1.0000e+00
			9.9		9.3055e+00		1.0000e+00
			9.95		8.7339e+00		1.0000e+00
			10.0		8.1623e+00		1.0000e+00
			10.05		7.5908e+00		1.0000e+00
			10.1		6.7913e+00		1.0000e+00
			10.15		5.9918e+00		1.0000e+00
			10.2		5.1924e+00		1.0000e+00
			10.25		4.3930e+00		1.0000e+00
			10.3		3.9961e+00		1.0000e+00
			10.35		3.5993e+00		1.0000e+00
			10.4		3.2025e+00		1.0000e+00
			10.45		2.8058e+00		1.0000e+00
			10.5		2.6859e+00		1.0000e+00
			10.55		2.5661e+00		1.0000e+00
			10.6		2.4463e+00		1.0000e+00
			10.65		2.3265e+00		1.0000e+00
			10.7		2.2907e+00		1.0000e+00
			10.75		2.2550e+00		1.0000e+00
			10.8		2.2193e+00		1.0000e+00
			10.85		2.1836e+00		1.0000e+00
			10.9		2.1479e+00		1.0000e+00
			10.95		2.1122e+00		1.0000e+00
			11.0		2.0765e+00		1.0000e+00
			11.05		2.0408e+00		1.0000e+00
			11.1		2.0051e+00		1.0000e+00
			11.15		1.9694e+00		1.0000e+00
			11.2		1.9337e+00		1.0000e+00
			11.25		1.8980e+00		1.0000e+00
			11.3		1.8623e+00		1.0000e+00
			11.35		1.8266e+00		1.0000e+00
			11.4		1.7909e+00		1.0000e+00
			11.45		1.7553e+00		1.0000e+00
			11.5		1.7357e+00		1.0000e+00
			11.55		1.7162e+00		1.0000e+00
			11.6		1.6966e+00		1.0000e+00
			11.65		1.6771e+00		1.0000e+00
			11.7		1.6575e+00		1.0000e+00
			11.75		1.6380e+00		1.0000e+00
			11.8		1.6184e+00		1.0000e+00
			11.85		1.5989e+00		1.0000e+00
			11.9		1.5793e+00		1.0000e+00
			11.95		1.5598e+00		1.0000e+00
			12.0		1.5403e+00		1.0000e+00
			12.05		1.5207e+00		1.0000e+00
			12.1		1.5012e+00		1.0000e+00
			12.15		1.4817e+00		1.0000e+00
			12.2		1.4622e+00		1.0000e+00
			12.25		1.4426e+00		1.0000e+00
			12.3		1.4267e+00		1.0000e+00
			12.35		1.4107e+00		1.0000e+00
			12.4		1.3948e+00		1.0000e+00
			12.45		1.3789e+00		1.0000e+00
			12.5		1.3629e+00		1.0000e+00
			12.55		1.3470e+00		1.0000e+00
			12.6		1.3311e+00		1.0000e+00
			12.65		1.3152e+00		1.0000e+00
			12.7		1.2992e+00		1.0000e+00
			12.75		1.2833e+00		1.0000e+00
			12.8		1.2674e+00		1.0000e+00
			12.85		1.2515e+00		1.0000e+00
			12.9		1.2355e+00		1.0000e+00
			12.95		1.2196e+00		1.0000e+00
			13.0		1.2037e+00		1.0000e+00
			13.05		1.1878e+00		1.0000e+00
			13.1		1.1780e+00		1.0000e+00
			13.15		1.1682e+00		1.0000e+00
			13.2		1.1584e+00		1.0000e+00
			13.25		1.1486e+00		1.0000e+00
			13.3		1.1389e+00		1.0000e+00
			13.35		1.1291e+00		1.0000e+00
			13.4		1.1193e+00		1.0000e+00
			13.45		1.1095e+00		1.0000e+00
			13.5		1.0997e+00		1.0000e+00
			13.55		1.0899e+00		1.0000e+00
			13.6		1.0801e+00		1.0000e+00
			13.65		1.0704e+00		1.0000e+00
			13.7		1.0606e+00		1.0000e+00
			13.75		1.0508e+00		1.0000e+00
			13.8		1.0410e+00		1.0000e+00
			13.85		1.0313e+00		1.0000e+00
			13.9		1.0251e+00		1.0000e+00
			13.95		1.0189e+00		1.0000e+00
