BEGIN_SCAN_DATA
	FORMAT=CC-Export V1.9                  
	FILE_CREATION_DATE=
	LAST_MODIFIED=11-Jan-2023 10:50:14
	BEGIN_SCAN  1
		TASK_NAME=RayStation Phantom Profiles & PDDs
		PROGRAM=RayStation
		COMMENT=RayStation Script Export
		MEAS_DATE=11-Jan-2023 10:50:14
		LINAC=RayStation
		MODALITY=X
		ISOCENTER=1000.00
		INPLANE_AXIS=Y
		CROSSPLANE_AXIS=X
		DEPTH_AXIS=Z
		INPLANE_AXIS_DIR=GUN_TARGET
		CROSSPLANE_AXIS_DIR=LEFT_RIGHT
		DEPTH_AXIS_DIR=UP_DOWN
		ENERGY=6.3
		NOMINAL_DMAX=20.00
		SSD=1000.0
		SCD=1000.00
		WEDGE_ANGLE=0.00
		FIELD_INPLANE=150.0
		FIELD_CROSSPLANE=100.0
		FIELD_TYPE=IRREGULAR
		GANTRY=0.00
		GANTRY_UPRIGHT_POSITION=0
		GANTRY_ROTATION=CW
		COLL_ANGLE=0.00
		REF_FIELD_DEPTH=50.00
		REF_FIELD_DEFINED=ISOCENTER
		FIELD_INPLANE=150.0
		FIELD_CROSSPLANE=100.0
		SCAN_CURVETYPE=INPLANE_PROFILE
		SCAN_DEPTH=100.0
		SCAN_OFFAXIS_INPLANE=0.00
		SCAN_OFFAXIS_CROSSPLANE=0.00
		SCAN_ANGLE=0.00
		SCAN_DIAGONAL=NOT_DIAGONAL
		SCAN_DIRECTION=NEGATIVE
		MEAS_MEDIUM=WATER
		MEAS_UNIT=cGy
		INCLINATION_ANGLE=0.00
		PRESSURE=1013.20
		TEMPERATURE=20.00
		NORM_TEMPERATURE=20.00
		CORRECTION_FACTOR=1.0000;
		BEGIN_DATA
			-5.0		9.1585e-04		1.0000e+00
			-4.95		9.2683e-04		1.0000e+00
			-4.9		9.3781e-04		1.0000e+00
			-4.85		9.4879e-04		1.0000e+00
			-4.8		9.5977e-04		1.0000e+00
			-4.75		9.6608e-04		1.0000e+00
			-4.7		9.7239e-04		1.0000e+00
			-4.65		9.7870e-04		1.0000e+00
			-4.6		9.8501e-04		1.0000e+00
			-4.55		9.9623e-04		1.0000e+00
			-4.5		1.0074e-03		1.0000e+00
			-4.45		1.0187e-03		1.0000e+00
			-4.4		1.0299e-03		1.0000e+00
			-4.35		1.0386e-03		1.0000e+00
			-4.3		1.0473e-03		1.0000e+00
			-4.25		1.0560e-03		1.0000e+00
			-4.2		1.0648e-03		1.0000e+00
			-4.15		1.0742e-03		1.0000e+00
			-4.1		1.0837e-03		1.0000e+00
			-4.05		1.0932e-03		1.0000e+00
			-4.0		1.1026e-03		1.0000e+00
			-3.95		1.1146e-03		1.0000e+00
			-3.9		1.1266e-03		1.0000e+00
			-3.85		1.1386e-03		1.0000e+00
			-3.8		1.1506e-03		1.0000e+00
			-3.75		1.1580e-03		1.0000e+00
			-3.7		1.1654e-03		1.0000e+00
			-3.65		1.1728e-03		1.0000e+00
			-3.6		1.1802e-03		1.0000e+00
			-3.55		1.1951e-03		1.0000e+00
			-3.5		1.2101e-03		1.0000e+00
			-3.45		1.2250e-03		1.0000e+00
			-3.4		1.2400e-03		1.0000e+00
			-3.35		1.2462e-03		1.0000e+00
			-3.3		1.2525e-03		1.0000e+00
			-3.25		1.2587e-03		1.0000e+00
			-3.2		1.2650e-03		1.0000e+00
			-3.15		1.2827e-03		1.0000e+00
			-3.1		1.3004e-03		1.0000e+00
			-3.05		1.3181e-03		1.0000e+00
			-3.0		1.3359e-03		1.0000e+00
			-2.95		1.3416e-03		1.0000e+00
			-2.9		1.3474e-03		1.0000e+00
			-2.85		1.3532e-03		1.0000e+00
			-2.8		1.3590e-03		1.0000e+00
			-2.75		1.3803e-03		1.0000e+00
			-2.7		1.4016e-03		1.0000e+00
			-2.65		1.4229e-03		1.0000e+00
			-2.6		1.4442e-03		1.0000e+00
			-2.55		1.4487e-03		1.0000e+00
			-2.5		1.4532e-03		1.0000e+00
			-2.45		1.4577e-03		1.0000e+00
			-2.4		1.4622e-03		1.0000e+00
			-2.35		1.4863e-03		1.0000e+00
			-2.3		1.5104e-03		1.0000e+00
			-2.25		1.5345e-03		1.0000e+00
			-2.2		1.5586e-03		1.0000e+00
			-2.15		1.5624e-03		1.0000e+00
			-2.1		1.5662e-03		1.0000e+00
			-2.05		1.5700e-03		1.0000e+00
			-2.0		1.5738e-03		1.0000e+00
			-1.95		1.5991e-03		1.0000e+00
			-1.9		1.6243e-03		1.0000e+00
			-1.85		1.6496e-03		1.0000e+00
			-1.8		1.6748e-03		1.0000e+00
			-1.75		1.6796e-03		1.0000e+00
			-1.7		1.6843e-03		1.0000e+00
			-1.65		1.6890e-03		1.0000e+00
			-1.6		1.6937e-03		1.0000e+00
			-1.55		1.7185e-03		1.0000e+00
			-1.5		1.7433e-03		1.0000e+00
			-1.45		1.7681e-03		1.0000e+00
			-1.4		1.7929e-03		1.0000e+00
			-1.35		1.7994e-03		1.0000e+00
			-1.3		1.8059e-03		1.0000e+00
			-1.25		1.8124e-03		1.0000e+00
			-1.2		1.8188e-03		1.0000e+00
			-1.15		1.8427e-03		1.0000e+00
			-1.1		1.8666e-03		1.0000e+00
			-1.05		1.8906e-03		1.0000e+00
			-1.0		1.9145e-03		1.0000e+00
			-0.95		1.9232e-03		1.0000e+00
			-0.9		1.9320e-03		1.0000e+00
			-0.85		1.9408e-03		1.0000e+00
			-0.8		1.9495e-03		1.0000e+00
			-0.75		1.9726e-03		1.0000e+00
			-0.7		1.9956e-03		1.0000e+00
			-0.65		2.0187e-03		1.0000e+00
			-0.6		2.0417e-03		1.0000e+00
			-0.55		2.0537e-03		1.0000e+00
			-0.5		2.0656e-03		1.0000e+00
			-0.45		2.0775e-03		1.0000e+00
			-0.4		2.0895e-03		1.0000e+00
			-0.35		2.1099e-03		1.0000e+00
			-0.3		2.1303e-03		1.0000e+00
			-0.25		2.1507e-03		1.0000e+00
			-0.2		2.1711e-03		1.0000e+00
			-0.15		2.1875e-03		1.0000e+00
			-0.1		2.2038e-03		1.0000e+00
			-0.05		2.2201e-03		1.0000e+00
			-0.0		2.2365e-03		1.0000e+00
			0.05		2.2532e-03		1.0000e+00
			0.1		2.2698e-03		1.0000e+00
			0.15		2.2865e-03		1.0000e+00
			0.2		2.3032e-03		1.0000e+00
			0.25		2.3255e-03		1.0000e+00
			0.3		2.3479e-03		1.0000e+00
			0.35		2.3703e-03		1.0000e+00
			0.4		2.3926e-03		1.0000e+00
			0.45		2.4057e-03		1.0000e+00
			0.5		2.4187e-03		1.0000e+00
			0.55		2.4318e-03		1.0000e+00
			0.6		2.4448e-03		1.0000e+00
			0.65		2.4721e-03		1.0000e+00
			0.7		2.4994e-03		1.0000e+00
			0.75		2.5266e-03		1.0000e+00
			0.8		2.5539e-03		1.0000e+00
			0.85		2.5648e-03		1.0000e+00
			0.9		2.5756e-03		1.0000e+00
			0.95		2.5864e-03		1.0000e+00
			1.0		2.5973e-03		1.0000e+00
			1.05		2.6288e-03		1.0000e+00
			1.1		2.6604e-03		1.0000e+00
			1.15		2.6920e-03		1.0000e+00
			1.2		2.7235e-03		1.0000e+00
			1.25		2.7321e-03		1.0000e+00
			1.3		2.7407e-03		1.0000e+00
			1.35		2.7494e-03		1.0000e+00
			1.4		2.7580e-03		1.0000e+00
			1.45		2.7933e-03		1.0000e+00
			1.5		2.8287e-03		1.0000e+00
			1.55		2.8641e-03		1.0000e+00
			1.6		2.8994e-03		1.0000e+00
			1.65		2.9054e-03		1.0000e+00
			1.7		2.9113e-03		1.0000e+00
			1.75		2.9172e-03		1.0000e+00
			1.8		2.9231e-03		1.0000e+00
			1.85		2.9626e-03		1.0000e+00
			1.9		3.0021e-03		1.0000e+00
			1.95		3.0416e-03		1.0000e+00
			2.0		3.0811e-03		1.0000e+00
			2.05		3.0859e-03		1.0000e+00
			2.1		3.0906e-03		1.0000e+00
			2.15		3.0954e-03		1.0000e+00
			2.2		3.1001e-03		1.0000e+00
			2.25		3.1406e-03		1.0000e+00
			2.3		3.1810e-03		1.0000e+00
			2.35		3.2215e-03		1.0000e+00
			2.4		3.2620e-03		1.0000e+00
			2.45		3.2684e-03		1.0000e+00
			2.5		3.2749e-03		1.0000e+00
			2.55		3.2814e-03		1.0000e+00
			2.6		3.2879e-03		1.0000e+00
			2.65		3.3279e-03		1.0000e+00
			2.7		3.3679e-03		1.0000e+00
			2.75		3.4080e-03		1.0000e+00
			2.8		3.4480e-03		1.0000e+00
			2.85		3.4589e-03		1.0000e+00
			2.9		3.4699e-03		1.0000e+00
			2.95		3.4808e-03		1.0000e+00
			3.0		3.4918e-03		1.0000e+00
			3.05		3.5296e-03		1.0000e+00
			3.1		3.5674e-03		1.0000e+00
			3.15		3.6051e-03		1.0000e+00
			3.2		3.6429e-03		1.0000e+00
			3.25		3.6572e-03		1.0000e+00
			3.3		3.6715e-03		1.0000e+00
			3.35		3.6858e-03		1.0000e+00
			3.4		3.7001e-03		1.0000e+00
			3.45		3.7359e-03		1.0000e+00
			3.5		3.7717e-03		1.0000e+00
			3.55		3.8075e-03		1.0000e+00
			3.6		3.8434e-03		1.0000e+00
			3.65		3.8623e-03		1.0000e+00
			3.7		3.8813e-03		1.0000e+00
			3.75		3.9002e-03		1.0000e+00
			3.8		3.9192e-03		1.0000e+00
			3.85		3.9504e-03		1.0000e+00
			3.9		3.9816e-03		1.0000e+00
			3.95		4.0129e-03		1.0000e+00
			4.0		4.0441e-03		1.0000e+00
			4.05		4.0700e-03		1.0000e+00
			4.1		4.0959e-03		1.0000e+00
			4.15		4.1218e-03		1.0000e+00
			4.2		4.1477e-03		1.0000e+00
			4.25		4.1724e-03		1.0000e+00
			4.3		4.1971e-03		1.0000e+00
			4.35		4.2218e-03		1.0000e+00
			4.4		4.2466e-03		1.0000e+00
			4.45		4.2819e-03		1.0000e+00
			4.5		4.3172e-03		1.0000e+00
			4.55		4.3525e-03		1.0000e+00
			4.6		4.3879e-03		1.0000e+00
			4.65		4.4069e-03		1.0000e+00
			4.7		4.4259e-03		1.0000e+00
			4.75		4.4450e-03		1.0000e+00
			4.8		4.4640e-03		1.0000e+00
			4.85		4.5060e-03		1.0000e+00
			4.9		4.5481e-03		1.0000e+00
			4.95		4.5901e-03		1.0000e+00
			5.0		4.6321e-03		1.0000e+00
			5.05		4.6687e-03		1.0000e+00
			5.1		4.7053e-03		1.0000e+00
			5.15		4.7419e-03		1.0000e+00
			5.2		4.7785e-03		1.0000e+00
			5.25		4.8923e-03		1.0000e+00
			5.3		5.0062e-03		1.0000e+00
			5.35		5.1201e-03		1.0000e+00
			5.4		5.2340e-03		1.0000e+00
			5.45		5.2973e-03		1.0000e+00
			5.5		5.3606e-03		1.0000e+00
			5.55		5.4239e-03		1.0000e+00
			5.6		5.4872e-03		1.0000e+00
			5.65		5.7875e-03		1.0000e+00
			5.7		6.0879e-03		1.0000e+00
			5.75		6.3883e-03		1.0000e+00
			5.8		6.6886e-03		1.0000e+00
			5.85		6.7387e-03		1.0000e+00
			5.9		6.7887e-03		1.0000e+00
			5.95		6.8388e-03		1.0000e+00
			6.0		6.8888e-03		1.0000e+00
			6.05		7.2883e-03		1.0000e+00
			6.1		7.6877e-03		1.0000e+00
			6.15		8.0872e-03		1.0000e+00
			6.2		8.4867e-03		1.0000e+00
			6.25		8.5313e-03		1.0000e+00
			6.3		8.5760e-03		1.0000e+00
			6.35		8.6206e-03		1.0000e+00
			6.4		8.6653e-03		1.0000e+00
			6.45		9.1595e-03		1.0000e+00
			6.5		9.6538e-03		1.0000e+00
			6.55		1.0148e-02		1.0000e+00
			6.6		1.0642e-02		1.0000e+00
			6.65		1.0715e-02		1.0000e+00
			6.7		1.0788e-02		1.0000e+00
			6.75		1.0861e-02		1.0000e+00
			6.8		1.0934e-02		1.0000e+00
			6.85		1.1525e-02		1.0000e+00
			6.9		1.2115e-02		1.0000e+00
			6.95		1.2705e-02		1.0000e+00
			7.0		1.3295e-02		1.0000e+00
			7.05		1.3443e-02		1.0000e+00
			7.1		1.3591e-02		1.0000e+00
			7.15		1.3738e-02		1.0000e+00
			7.2		1.3886e-02		1.0000e+00
			7.25		1.4545e-02		1.0000e+00
			7.3		1.5205e-02		1.0000e+00
			7.35		1.5864e-02		1.0000e+00
			7.4		1.6524e-02		1.0000e+00
			7.45		1.6766e-02		1.0000e+00
			7.5		1.7009e-02		1.0000e+00
			7.55		1.7251e-02		1.0000e+00
			7.6		1.7494e-02		1.0000e+00
			7.65		1.8207e-02		1.0000e+00
			7.7		1.8920e-02		1.0000e+00
			7.75		1.9633e-02		1.0000e+00
			7.8		2.0346e-02		1.0000e+00
			7.85		2.0729e-02		1.0000e+00
			7.9		2.1112e-02		1.0000e+00
			7.95		2.1495e-02		1.0000e+00
			8.0		2.1878e-02		1.0000e+00
			8.05		2.2598e-02		1.0000e+00
			8.1		2.3318e-02		1.0000e+00
			8.15		2.4038e-02		1.0000e+00
			8.2		2.4758e-02		1.0000e+00
			8.25		2.5368e-02		1.0000e+00
			8.3		2.5979e-02		1.0000e+00
			8.35		2.6589e-02		1.0000e+00
			8.4		2.7200e-02		1.0000e+00
			8.45		2.7844e-02		1.0000e+00
			8.5		2.8487e-02		1.0000e+00
			8.55		2.9131e-02		1.0000e+00
			8.6		2.9775e-02		1.0000e+00
			8.65		3.0721e-02		1.0000e+00
			8.7		3.1668e-02		1.0000e+00
			8.75		3.2614e-02		1.0000e+00
			8.8		3.3560e-02		1.0000e+00
			8.85		3.4128e-02		1.0000e+00
			8.9		3.4696e-02		1.0000e+00
			8.95		3.5264e-02		1.0000e+00
			9.0		3.5831e-02		1.0000e+00
			9.05		3.7133e-02		1.0000e+00
			9.1		3.8434e-02		1.0000e+00
			9.15		3.9735e-02		1.0000e+00
			9.2		4.1036e-02		1.0000e+00
			9.25		4.1550e-02		1.0000e+00
			9.3		4.2065e-02		1.0000e+00
			9.35		4.2580e-02		1.0000e+00
			9.4		4.3094e-02		1.0000e+00
			9.45		4.4769e-02		1.0000e+00
			9.5		4.6443e-02		1.0000e+00
			9.55		4.8118e-02		1.0000e+00
			9.6		4.9792e-02		1.0000e+00
			9.65		5.0222e-02		1.0000e+00
			9.7		5.0652e-02		1.0000e+00
			9.75		5.1081e-02		1.0000e+00
			9.8		5.1511e-02		1.0000e+00
			9.85		5.3615e-02		1.0000e+00
			9.9		5.5718e-02		1.0000e+00
			9.95		5.7822e-02		1.0000e+00
			10.0		5.9926e-02		1.0000e+00
			10.05		6.0226e-02		1.0000e+00
			10.1		6.0526e-02		1.0000e+00
			10.15		6.0826e-02		1.0000e+00
			10.2		6.1126e-02		1.0000e+00
			10.25		6.3630e-02		1.0000e+00
			10.3		6.6134e-02		1.0000e+00
			10.35		6.8639e-02		1.0000e+00
			10.4		7.1143e-02		1.0000e+00
			10.45		7.1402e-02		1.0000e+00
			10.5		7.1661e-02		1.0000e+00
			10.55		7.1920e-02		1.0000e+00
			10.6		7.2179e-02		1.0000e+00
			10.65		7.5005e-02		1.0000e+00
			10.7		7.7831e-02		1.0000e+00
			10.75		8.0658e-02		1.0000e+00
			10.8		8.3484e-02		1.0000e+00
			10.85		8.3916e-02		1.0000e+00
			10.9		8.4348e-02		1.0000e+00
			10.95		8.4781e-02		1.0000e+00
			11.0		8.5213e-02		1.0000e+00
			11.05		8.8243e-02		1.0000e+00
			11.1		9.1273e-02		1.0000e+00
			11.15		9.4303e-02		1.0000e+00
			11.2		9.7333e-02		1.0000e+00
			11.25		9.8131e-02		1.0000e+00
			11.3		9.8928e-02		1.0000e+00
			11.35		9.9726e-02		1.0000e+00
			11.4		1.0052e-01		1.0000e+00
			11.45		1.0361e-01		1.0000e+00
			11.5		1.0670e-01		1.0000e+00
			11.55		1.0979e-01		1.0000e+00
			11.6		1.1288e-01		1.0000e+00
			11.65		1.1405e-01		1.0000e+00
			11.7		1.1522e-01		1.0000e+00
			11.75		1.1639e-01		1.0000e+00
			11.8		1.1755e-01		1.0000e+00
			11.85		1.2063e-01		1.0000e+00
			11.9		1.2370e-01		1.0000e+00
			11.95		1.2677e-01		1.0000e+00
			12.0		1.2984e-01		1.0000e+00
			12.05		1.3151e-01		1.0000e+00
			12.1		1.3318e-01		1.0000e+00
			12.15		1.3485e-01		1.0000e+00
			12.2		1.3651e-01		1.0000e+00
			12.25		1.3929e-01		1.0000e+00
			12.3		1.4207e-01		1.0000e+00
			12.35		1.4485e-01		1.0000e+00
			12.4		1.4763e-01		1.0000e+00
			12.45		2.3155e-01		1.0000e+00
			12.5		3.1548e-01		1.0000e+00
			12.55		3.9940e-01		1.0000e+00
			12.6		4.8333e-01		1.0000e+00
			12.65		5.2672e-01		1.0000e+00
			12.7		5.7012e-01		1.0000e+00
			12.75		6.1351e-01		1.0000e+00
			12.8		6.5691e-01		1.0000e+00
			12.85		7.0032e-01		1.0000e+00
			12.9		7.4374e-01		1.0000e+00
			12.95		7.8716e-01		1.0000e+00
			13.0		8.3057e-01		1.0000e+00
			13.05		8.3925e-01		1.0000e+00
			13.1		8.4793e-01		1.0000e+00
			13.15		8.5660e-01		1.0000e+00
			13.2		8.6528e-01		1.0000e+00
			13.25		8.7396e-01		1.0000e+00
			13.3		8.8264e-01		1.0000e+00
			13.35		8.9132e-01		1.0000e+00
			13.4		9.0000e-01		1.0000e+00
			13.45		9.0869e-01		1.0000e+00
			13.5		9.1737e-01		1.0000e+00
			13.55		9.2605e-01		1.0000e+00
			13.6		9.3474e-01		1.0000e+00
			13.65		9.4342e-01		1.0000e+00
			13.7		9.5211e-01		1.0000e+00
			13.75		9.6080e-01		1.0000e+00
			13.8		9.6949e-01		1.0000e+00
			13.85		9.8131e-01		1.0000e+00
			13.9		9.9313e-01		1.0000e+00
			13.95		1.0049e+00		1.0000e+00
			14.0		1.0168e+00		1.0000e+00
			14.05		1.0286e+00		1.0000e+00
			14.1		1.0404e+00		1.0000e+00
			14.15		1.0522e+00		1.0000e+00
			14.2		1.0641e+00		1.0000e+00
			14.25		1.0759e+00		1.0000e+00
			14.3		1.0877e+00		1.0000e+00
			14.35		1.0995e+00		1.0000e+00
			14.4		1.1114e+00		1.0000e+00
			14.45		1.1232e+00		1.0000e+00
			14.5		1.1350e+00		1.0000e+00
			14.55		1.1469e+00		1.0000e+00
			14.6		1.1587e+00		1.0000e+00
			14.65		1.1710e+00		1.0000e+00
			14.7		1.1832e+00		1.0000e+00
			14.75		1.1955e+00		1.0000e+00
			14.8		1.2078e+00		1.0000e+00
			14.85		1.2200e+00		1.0000e+00
			14.9		1.2323e+00		1.0000e+00
			14.95		1.2446e+00		1.0000e+00
			15.0		1.2568e+00		1.0000e+00
			15.05		1.2691e+00		1.0000e+00
			15.1		1.2814e+00		1.0000e+00
			15.15		1.2936e+00		1.0000e+00
			15.2		1.3059e+00		1.0000e+00
			15.25		1.3182e+00		1.0000e+00
			15.3		1.3305e+00		1.0000e+00
			15.35		1.3427e+00		1.0000e+00
			15.4		1.3550e+00		1.0000e+00
			15.45		1.3674e+00		1.0000e+00
			15.5		1.3798e+00		1.0000e+00
			15.55		1.3921e+00		1.0000e+00
			15.6		1.4045e+00		1.0000e+00
			15.65		1.4169e+00		1.0000e+00
			15.7		1.4292e+00		1.0000e+00
			15.75		1.4416e+00		1.0000e+00
			15.8		1.4540e+00		1.0000e+00
			15.85		1.4664e+00		1.0000e+00
			15.9		1.4787e+00		1.0000e+00
			15.95		1.4911e+00		1.0000e+00
			16.0		1.5035e+00		1.0000e+00
			16.05		1.5159e+00		1.0000e+00
			16.1		1.5282e+00		1.0000e+00
			16.15		1.5406e+00		1.0000e+00
			16.2		1.5530e+00		1.0000e+00
			16.25		1.5729e+00		1.0000e+00
			16.3		1.5927e+00		1.0000e+00
			16.35		1.6126e+00		1.0000e+00
			16.4		1.6324e+00		1.0000e+00
			16.45		1.6523e+00		1.0000e+00
			16.5		1.6722e+00		1.0000e+00
			16.55		1.6921e+00		1.0000e+00
			16.6		1.7119e+00		1.0000e+00
			16.65		1.7318e+00		1.0000e+00
			16.7		1.7517e+00		1.0000e+00
			16.75		1.7716e+00		1.0000e+00
			16.8		1.7914e+00		1.0000e+00
			16.85		1.8113e+00		1.0000e+00
			16.9		1.8312e+00		1.0000e+00
			16.95		1.8511e+00		1.0000e+00
			17.0		1.8709e+00		1.0000e+00
			17.05		1.9390e+00		1.0000e+00
			17.1		2.0070e+00		1.0000e+00
			17.15		2.0750e+00		1.0000e+00
			17.2		2.1430e+00		1.0000e+00
			17.25		2.2110e+00		1.0000e+00
			17.3		2.2791e+00		1.0000e+00
			17.35		2.3471e+00		1.0000e+00
			17.4		2.4151e+00		1.0000e+00
			17.45		2.4161e+00		1.0000e+00
			17.5		2.4170e+00		1.0000e+00
			17.55		2.4179e+00		1.0000e+00
			17.6		2.4189e+00		1.0000e+00
			17.65		2.5803e+00		1.0000e+00
			17.7		2.7417e+00		1.0000e+00
			17.75		2.9031e+00		1.0000e+00
			17.8		3.0645e+00		1.0000e+00
			17.85		3.5250e+00		1.0000e+00
			17.9		3.9856e+00		1.0000e+00
			17.95		4.4461e+00		1.0000e+00
			18.0		4.9067e+00		1.0000e+00
			18.05		5.4885e+00		1.0000e+00
			18.1		6.0703e+00		1.0000e+00
			18.15		6.6521e+00		1.0000e+00
			18.2		7.2339e+00		1.0000e+00
			18.25		7.5203e+00		1.0000e+00
			18.3		7.8067e+00		1.0000e+00
			18.35		8.0931e+00		1.0000e+00
			18.4		8.3795e+00		1.0000e+00
			18.45		8.4931e+00		1.0000e+00
			18.5		8.6067e+00		1.0000e+00
			18.55		8.7203e+00		1.0000e+00
			18.6		8.8340e+00		1.0000e+00
			18.65		8.8869e+00		1.0000e+00
			18.7		8.9398e+00		1.0000e+00
			18.75		8.9928e+00		1.0000e+00
			18.8		9.0457e+00		1.0000e+00
			18.85		9.0505e+00		1.0000e+00
			18.9		9.0552e+00		1.0000e+00
			18.95		9.0600e+00		1.0000e+00
			19.0		9.0647e+00		1.0000e+00
			19.05		9.0940e+00		1.0000e+00
			19.1		9.1232e+00		1.0000e+00
			19.15		9.1525e+00		1.0000e+00
			19.2		9.1817e+00		1.0000e+00
			19.25		9.2110e+00		1.0000e+00
			19.3		9.2402e+00		1.0000e+00
			19.35		9.2695e+00		1.0000e+00
			19.4		9.2987e+00		1.0000e+00
			19.45		9.3137e+00		1.0000e+00
			19.5		9.3288e+00		1.0000e+00
			19.55		9.3438e+00		1.0000e+00
			19.6		9.3588e+00		1.0000e+00
			19.65		9.3738e+00		1.0000e+00
			19.7		9.3889e+00		1.0000e+00
			19.75		9.4039e+00		1.0000e+00
			19.8		9.4189e+00		1.0000e+00
			19.85		9.4339e+00		1.0000e+00
			19.9		9.4489e+00		1.0000e+00
			19.95		9.4639e+00		1.0000e+00
			20.0		9.4790e+00		1.0000e+00
			20.05		9.4940e+00		1.0000e+00
			20.1		9.5090e+00		1.0000e+00
			20.15		9.5240e+00		1.0000e+00
			20.2		9.5390e+00		1.0000e+00
			20.25		9.5524e+00		1.0000e+00
			20.3		9.5658e+00		1.0000e+00
			20.35		9.5792e+00		1.0000e+00
			20.4		9.5926e+00		1.0000e+00
			20.45		9.6060e+00		1.0000e+00
			20.5		9.6194e+00		1.0000e+00
			20.55		9.6328e+00		1.0000e+00
			20.6		9.6462e+00		1.0000e+00
			20.65		9.6596e+00		1.0000e+00
			20.7		9.6729e+00		1.0000e+00
			20.75		9.6863e+00		1.0000e+00
			20.8		9.6997e+00		1.0000e+00
			20.85		9.7131e+00		1.0000e+00
			20.9		9.7265e+00		1.0000e+00
			20.95		9.7398e+00		1.0000e+00
			21.0		9.7532e+00		1.0000e+00
			21.05		9.7620e+00		1.0000e+00
			21.1		9.7708e+00		1.0000e+00
			21.15		9.7796e+00		1.0000e+00
			21.2		9.7883e+00		1.0000e+00
			21.25		9.7971e+00		1.0000e+00
			21.3		9.8059e+00		1.0000e+00
			21.35		9.8147e+00		1.0000e+00
			21.4		9.8234e+00		1.0000e+00
			21.45		9.8322e+00		1.0000e+00
			21.5		9.8410e+00		1.0000e+00
			21.55		9.8497e+00		1.0000e+00
			21.6		9.8585e+00		1.0000e+00
			21.65		9.8673e+00		1.0000e+00
			21.7		9.8760e+00		1.0000e+00
			21.75		9.8848e+00		1.0000e+00
			21.8		9.8935e+00		1.0000e+00
			21.85		9.9006e+00		1.0000e+00
			21.9		9.9076e+00		1.0000e+00
			21.95		9.9147e+00		1.0000e+00
			22.0		9.9217e+00		1.0000e+00
			22.05		9.9288e+00		1.0000e+00
			22.1		9.9358e+00		1.0000e+00
			22.15		9.9428e+00		1.0000e+00
			22.2		9.9499e+00		1.0000e+00
			22.25		9.9569e+00		1.0000e+00
			22.3		9.9639e+00		1.0000e+00
			22.35		9.9710e+00		1.0000e+00
			22.4		9.9780e+00		1.0000e+00
			22.45		9.9850e+00		1.0000e+00
			22.5		9.9920e+00		1.0000e+00
			22.55		9.9990e+00		1.0000e+00
			22.6		1.0006e+01		1.0000e+00
			22.65		1.0012e+01		1.0000e+00
			22.7		1.0019e+01		1.0000e+00
			22.75		1.0025e+01		1.0000e+00
			22.8		1.0032e+01		1.0000e+00
			22.85		1.0038e+01		1.0000e+00
			22.9		1.0045e+01		1.0000e+00
			22.95		1.0051e+01		1.0000e+00
			23.0		1.0057e+01		1.0000e+00
			23.05		1.0064e+01		1.0000e+00
			23.1		1.0070e+01		1.0000e+00
			23.15		1.0077e+01		1.0000e+00
			23.2		1.0083e+01		1.0000e+00
			23.25		1.0089e+01		1.0000e+00
			23.3		1.0096e+01		1.0000e+00
			23.35		1.0102e+01		1.0000e+00
			23.4		1.0109e+01		1.0000e+00
			23.45		1.0114e+01		1.0000e+00
			23.5		1.0119e+01		1.0000e+00
			23.55		1.0124e+01		1.0000e+00
			23.6		1.0129e+01		1.0000e+00
			23.65		1.0134e+01		1.0000e+00
			23.7		1.0139e+01		1.0000e+00
			23.75		1.0144e+01		1.0000e+00
			23.8		1.0149e+01		1.0000e+00
			23.85		1.0154e+01		1.0000e+00
			23.9		1.0159e+01		1.0000e+00
			23.95		1.0164e+01		1.0000e+00
			24.0		1.0169e+01		1.0000e+00
			24.05		1.0174e+01		1.0000e+00
			24.1		1.0179e+01		1.0000e+00
			24.15		1.0184e+01		1.0000e+00
			24.2		1.0189e+01		1.0000e+00
			24.25		1.0191e+01		1.0000e+00
			24.3		1.0192e+01		1.0000e+00
			24.35		1.0193e+01		1.0000e+00
			24.4		1.0195e+01		1.0000e+00
			24.45		1.0196e+01		1.0000e+00
			24.5		1.0197e+01		1.0000e+00
			24.55		1.0199e+01		1.0000e+00
			24.6		1.0200e+01		1.0000e+00
			24.65		1.0201e+01		1.0000e+00
			24.7		1.0203e+01		1.0000e+00
			24.75		1.0204e+01		1.0000e+00
			24.8		1.0205e+01		1.0000e+00
			24.85		1.0207e+01		1.0000e+00
			24.9		1.0208e+01		1.0000e+00
			24.95		1.0209e+01		1.0000e+00
			25.0		1.0210e+01		1.0000e+00
			25.05		1.0209e+01		1.0000e+00
			25.1		1.0208e+01		1.0000e+00
			25.15		1.0207e+01		1.0000e+00
			25.2		1.0205e+01		1.0000e+00
			25.25		1.0204e+01		1.0000e+00
			25.3		1.0203e+01		1.0000e+00
			25.35		1.0201e+01		1.0000e+00
			25.4		1.0200e+01		1.0000e+00
			25.45		1.0199e+01		1.0000e+00
			25.5		1.0197e+01		1.0000e+00
			25.55		1.0196e+01		1.0000e+00
			25.6		1.0195e+01		1.0000e+00
			25.65		1.0194e+01		1.0000e+00
			25.7		1.0192e+01		1.0000e+00
			25.75		1.0191e+01		1.0000e+00
			25.8		1.0190e+01		1.0000e+00
			25.85		1.0184e+01		1.0000e+00
			25.9		1.0179e+01		1.0000e+00
			25.95		1.0174e+01		1.0000e+00
			26.0		1.0169e+01		1.0000e+00
			26.05		1.0164e+01		1.0000e+00
			26.1		1.0159e+01		1.0000e+00
			26.15		1.0154e+01		1.0000e+00
			26.2		1.0149e+01		1.0000e+00
			26.25		1.0144e+01		1.0000e+00
			26.3		1.0139e+01		1.0000e+00
			26.35		1.0134e+01		1.0000e+00
			26.4		1.0129e+01		1.0000e+00
			26.45		1.0124e+01		1.0000e+00
			26.5		1.0119e+01		1.0000e+00
			26.55		1.0114e+01		1.0000e+00
			26.6		1.0109e+01		1.0000e+00
			26.65		1.0102e+01		1.0000e+00
			26.7		1.0096e+01		1.0000e+00
			26.75		1.0089e+01		1.0000e+00
			26.8		1.0083e+01		1.0000e+00
			26.85		1.0077e+01		1.0000e+00
			26.9		1.0070e+01		1.0000e+00
			26.95		1.0064e+01		1.0000e+00
			27.0		1.0057e+01		1.0000e+00
			27.05		1.0051e+01		1.0000e+00
			27.1		1.0045e+01		1.0000e+00
			27.15		1.0038e+01		1.0000e+00
			27.2		1.0032e+01		1.0000e+00
			27.25		1.0025e+01		1.0000e+00
			27.3		1.0019e+01		1.0000e+00
			27.35		1.0013e+01		1.0000e+00
			27.4		1.0006e+01		1.0000e+00
			27.45		9.9990e+00		1.0000e+00
			27.5		9.9920e+00		1.0000e+00
			27.55		9.9849e+00		1.0000e+00
			27.6		9.9779e+00		1.0000e+00
			27.65		9.9708e+00		1.0000e+00
			27.7		9.9638e+00		1.0000e+00
			27.75		9.9567e+00		1.0000e+00
			27.8		9.9497e+00		1.0000e+00
			27.85		9.9426e+00		1.0000e+00
			27.9		9.9355e+00		1.0000e+00
			27.95		9.9285e+00		1.0000e+00
			28.0		9.9214e+00		1.0000e+00
			28.05		9.9143e+00		1.0000e+00
			28.1		9.9073e+00		1.0000e+00
			28.15		9.9002e+00		1.0000e+00
			28.2		9.8931e+00		1.0000e+00
			28.25		9.8844e+00		1.0000e+00
			28.3		9.8757e+00		1.0000e+00
			28.35		9.8669e+00		1.0000e+00
			28.4		9.8582e+00		1.0000e+00
			28.45		9.8494e+00		1.0000e+00
			28.5		9.8407e+00		1.0000e+00
			28.55		9.8320e+00		1.0000e+00
			28.6		9.8232e+00		1.0000e+00
			28.65		9.8145e+00		1.0000e+00
			28.7		9.8057e+00		1.0000e+00
			28.75		9.7969e+00		1.0000e+00
			28.8		9.7882e+00		1.0000e+00
			28.85		9.7794e+00		1.0000e+00
			28.9		9.7707e+00		1.0000e+00
			28.95		9.7619e+00		1.0000e+00
			29.0		9.7532e+00		1.0000e+00
			29.05		9.7397e+00		1.0000e+00
			29.1		9.7263e+00		1.0000e+00
			29.15		9.7129e+00		1.0000e+00
			29.2		9.6995e+00		1.0000e+00
			29.25		9.6861e+00		1.0000e+00
			29.3		9.6727e+00		1.0000e+00
			29.35		9.6593e+00		1.0000e+00
			29.4		9.6459e+00		1.0000e+00
			29.45		9.6325e+00		1.0000e+00
			29.5		9.6191e+00		1.0000e+00
			29.55		9.6057e+00		1.0000e+00
			29.6		9.5922e+00		1.0000e+00
			29.65		9.5788e+00		1.0000e+00
			29.7		9.5654e+00		1.0000e+00
			29.75		9.5520e+00		1.0000e+00
			29.8		9.5385e+00		1.0000e+00
			29.85		9.5236e+00		1.0000e+00
			29.9		9.5087e+00		1.0000e+00
			29.95		9.4938e+00		1.0000e+00
			30.0		9.4788e+00		1.0000e+00
			30.05		9.4639e+00		1.0000e+00
			30.1		9.4490e+00		1.0000e+00
			30.15		9.4340e+00		1.0000e+00
			30.2		9.4191e+00		1.0000e+00
			30.25		9.4042e+00		1.0000e+00
			30.3		9.3892e+00		1.0000e+00
			30.35		9.3743e+00		1.0000e+00
			30.4		9.3593e+00		1.0000e+00
			30.45		9.3444e+00		1.0000e+00
			30.5		9.3294e+00		1.0000e+00
			30.55		9.3145e+00		1.0000e+00
			30.6		9.2995e+00		1.0000e+00
			30.65		9.2702e+00		1.0000e+00
			30.7		9.2409e+00		1.0000e+00
			30.75		9.2116e+00		1.0000e+00
			30.8		9.1823e+00		1.0000e+00
			30.85		9.1529e+00		1.0000e+00
			30.9		9.1236e+00		1.0000e+00
			30.95		9.0943e+00		1.0000e+00
			31.0		9.0650e+00		1.0000e+00
			31.05		9.0602e+00		1.0000e+00
			31.1		9.0553e+00		1.0000e+00
			31.15		9.0505e+00		1.0000e+00
			31.2		9.0457e+00		1.0000e+00
			31.25		8.9927e+00		1.0000e+00
			31.3		8.9397e+00		1.0000e+00
			31.35		8.8866e+00		1.0000e+00
			31.4		8.8336e+00		1.0000e+00
			31.45		8.7202e+00		1.0000e+00
			31.5		8.6068e+00		1.0000e+00
			31.55		8.4933e+00		1.0000e+00
			31.6		8.3799e+00		1.0000e+00
			31.65		8.0931e+00		1.0000e+00
			31.7		7.8063e+00		1.0000e+00
			31.75		7.5196e+00		1.0000e+00
			31.8		7.2328e+00		1.0000e+00
			31.85		6.6517e+00		1.0000e+00
			31.9		6.0706e+00		1.0000e+00
			31.95		5.4896e+00		1.0000e+00
			32.0		4.9085e+00		1.0000e+00
			32.05		4.4415e+00		1.0000e+00
			32.1		3.9745e+00		1.0000e+00
			32.15		3.5076e+00		1.0000e+00
			32.2		3.0406e+00		1.0000e+00
			32.25		2.8852e+00		1.0000e+00
			32.3		2.7298e+00		1.0000e+00
			32.35		2.5744e+00		1.0000e+00
			32.4		2.4190e+00		1.0000e+00
			32.45		2.4181e+00		1.0000e+00
			32.5		2.4171e+00		1.0000e+00
			32.55		2.4161e+00		1.0000e+00
			32.6		2.4152e+00		1.0000e+00
			32.65		2.3471e+00		1.0000e+00
			32.7		2.2791e+00		1.0000e+00
			32.75		2.2111e+00		1.0000e+00
			32.8		2.1430e+00		1.0000e+00
			32.85		2.0750e+00		1.0000e+00
			32.9		2.0070e+00		1.0000e+00
			32.95		1.9389e+00		1.0000e+00
			33.0		1.8709e+00		1.0000e+00
			33.05		1.8510e+00		1.0000e+00
			33.1		1.8312e+00		1.0000e+00
			33.15		1.8113e+00		1.0000e+00
			33.2		1.7914e+00		1.0000e+00
			33.25		1.7715e+00		1.0000e+00
			33.3		1.7516e+00		1.0000e+00
			33.35		1.7318e+00		1.0000e+00
			33.4		1.7119e+00		1.0000e+00
			33.45		1.6920e+00		1.0000e+00
			33.5		1.6722e+00		1.0000e+00
			33.55		1.6523e+00		1.0000e+00
			33.6		1.6324e+00		1.0000e+00
			33.65		1.6126e+00		1.0000e+00
			33.7		1.5927e+00		1.0000e+00
			33.75		1.5728e+00		1.0000e+00
			33.8		1.5530e+00		1.0000e+00
			33.85		1.5406e+00		1.0000e+00
			33.9		1.5282e+00		1.0000e+00
			33.95		1.5158e+00		1.0000e+00
			34.0		1.5035e+00		1.0000e+00
			34.05		1.4911e+00		1.0000e+00
			34.1		1.4787e+00		1.0000e+00
			34.15		1.4663e+00		1.0000e+00
			34.2		1.4540e+00		1.0000e+00
			34.25		1.4416e+00		1.0000e+00
			34.3		1.4292e+00		1.0000e+00
			34.35		1.4169e+00		1.0000e+00
			34.4		1.4045e+00		1.0000e+00
			34.45		1.3921e+00		1.0000e+00
			34.5		1.3798e+00		1.0000e+00
			34.55		1.3674e+00		1.0000e+00
			34.6		1.3550e+00		1.0000e+00
			34.65		1.3427e+00		1.0000e+00
			34.7		1.3305e+00		1.0000e+00
			34.75		1.3182e+00		1.0000e+00
			34.8		1.3059e+00		1.0000e+00
			34.85		1.2936e+00		1.0000e+00
			34.9		1.2814e+00		1.0000e+00
			34.95		1.2691e+00		1.0000e+00
			35.0		1.2568e+00		1.0000e+00
			35.05		1.2446e+00		1.0000e+00
			35.1		1.2323e+00		1.0000e+00
			35.15		1.2200e+00		1.0000e+00
			35.2		1.2078e+00		1.0000e+00
			35.25		1.1955e+00		1.0000e+00
			35.3		1.1832e+00		1.0000e+00
			35.35		1.1710e+00		1.0000e+00
			35.4		1.1587e+00		1.0000e+00
			35.45		1.1469e+00		1.0000e+00
			35.5		1.1350e+00		1.0000e+00
			35.55		1.1232e+00		1.0000e+00
			35.6		1.1114e+00		1.0000e+00
			35.65		1.0996e+00		1.0000e+00
			35.7		1.0877e+00		1.0000e+00
			35.75		1.0759e+00		1.0000e+00
			35.8		1.0641e+00		1.0000e+00
			35.85		1.0523e+00		1.0000e+00
			35.9		1.0404e+00		1.0000e+00
			35.95		1.0286e+00		1.0000e+00
			36.0		1.0168e+00		1.0000e+00
			36.05		1.0050e+00		1.0000e+00
			36.1		9.9315e-01		1.0000e+00
			36.15		9.8133e-01		1.0000e+00
			36.2		9.6951e-01		1.0000e+00
			36.25		9.6082e-01		1.0000e+00
			36.3		9.5214e-01		1.0000e+00
			36.35		9.4345e-01		1.0000e+00
			36.4		9.3476e-01		1.0000e+00
			36.45		9.2607e-01		1.0000e+00
			36.5		9.1739e-01		1.0000e+00
			36.55		9.0871e-01		1.0000e+00
			36.6		9.0002e-01		1.0000e+00
			36.65		8.9134e-01		1.0000e+00
			36.7		8.8266e-01		1.0000e+00
			36.75		8.7398e-01		1.0000e+00
			36.8		8.6529e-01		1.0000e+00
			36.85		8.5662e-01		1.0000e+00
			36.9		8.4794e-01		1.0000e+00
			36.95		8.3926e-01		1.0000e+00
			37.0		8.3058e-01		1.0000e+00
			37.05		7.8717e-01		1.0000e+00
			37.1		7.4375e-01		1.0000e+00
			37.15		7.0034e-01		1.0000e+00
			37.2		6.5692e-01		1.0000e+00
			37.25		6.1353e-01		1.0000e+00
			37.3		5.7014e-01		1.0000e+00
			37.35		5.2675e-01		1.0000e+00
			37.4		4.8336e-01		1.0000e+00
			37.45		3.9942e-01		1.0000e+00
			37.5		3.1548e-01		1.0000e+00
			37.55		2.3154e-01		1.0000e+00
			37.6		1.4760e-01		1.0000e+00
			37.65		1.4483e-01		1.0000e+00
			37.7		1.4206e-01		1.0000e+00
			37.75		1.3929e-01		1.0000e+00
			37.8		1.3652e-01		1.0000e+00
			37.85		1.3485e-01		1.0000e+00
			37.9		1.3319e-01		1.0000e+00
			37.95		1.3152e-01		1.0000e+00
			38.0		1.2985e-01		1.0000e+00
			38.05		1.2678e-01		1.0000e+00
			38.1		1.2370e-01		1.0000e+00
			38.15		1.2062e-01		1.0000e+00
			38.2		1.1755e-01		1.0000e+00
			38.25		1.1639e-01		1.0000e+00
			38.3		1.1524e-01		1.0000e+00
			38.35		1.1409e-01		1.0000e+00
			38.4		1.1294e-01		1.0000e+00
			38.45		1.0981e-01		1.0000e+00
			38.5		1.0668e-01		1.0000e+00
			38.55		1.0355e-01		1.0000e+00
			38.6		1.0042e-01		1.0000e+00
			38.65		9.9662e-02		1.0000e+00
			38.7		9.8904e-02		1.0000e+00
			38.75		9.8147e-02		1.0000e+00
			38.8		9.7389e-02		1.0000e+00
			38.85		9.4349e-02		1.0000e+00
			38.9		9.1309e-02		1.0000e+00
			38.95		8.8269e-02		1.0000e+00
			39.0		8.5229e-02		1.0000e+00
			39.05		8.4785e-02		1.0000e+00
			39.1		8.4341e-02		1.0000e+00
			39.15		8.3897e-02		1.0000e+00
			39.2		8.3453e-02		1.0000e+00
			39.25		8.0638e-02		1.0000e+00
			39.3		7.7823e-02		1.0000e+00
			39.35		7.5008e-02		1.0000e+00
			39.4		7.2193e-02		1.0000e+00
			39.45		7.1930e-02		1.0000e+00
			39.5		7.1668e-02		1.0000e+00
			39.55		7.1405e-02		1.0000e+00
			39.6		7.1143e-02		1.0000e+00
			39.65		6.8639e-02		1.0000e+00
