BEGIN_SCAN_DATA
	FORMAT=CC-Export V1.9                  
	FILE_CREATION_DATE=
	LAST_MODIFIED=11-Jan-2023 10:50:14
	BEGIN_SCAN  1
		TASK_NAME=RayStation Phantom Profiles & PDDs
		PROGRAM=RayStation
		COMMENT=RayStation Script Export
		MEAS_DATE=11-Jan-2023 10:50:14
		LINAC=RayStation
		MODALITY=X
		ISOCENTER=1000.00
		INPLANE_AXIS=Y
		CROSSPLANE_AXIS=X
		DEPTH_AXIS=Z
		INPLANE_AXIS_DIR=GUN_TARGET
		CROSSPLANE_AXIS_DIR=LEFT_RIGHT
		DEPTH_AXIS_DIR=UP_DOWN
		ENERGY=6.3
		NOMINAL_DMAX=20.00
		SSD=1000.0
		SCD=1000.00
		WEDGE_ANGLE=0.00
		FIELD_INPLANE=150.0
		FIELD_CROSSPLANE=100.0
		FIELD_TYPE=IRREGULAR
		GANTRY=0.00
		GANTRY_UPRIGHT_POSITION=0
		GANTRY_ROTATION=CW
		COLL_ANGLE=0.00
		REF_FIELD_DEPTH=50.00
		REF_FIELD_DEFINED=ISOCENTER
		FIELD_INPLANE=150.0
		FIELD_CROSSPLANE=100.0
		SCAN_CURVETYPE=INPLANE_PROFILE
		SCAN_DEPTH=200.0
		SCAN_OFFAXIS_INPLANE=0.00
		SCAN_OFFAXIS_CROSSPLANE=0.00
		SCAN_ANGLE=0.00
		SCAN_DIAGONAL=NOT_DIAGONAL
		SCAN_DIRECTION=NEGATIVE
		MEAS_MEDIUM=WATER
		MEAS_UNIT=cGy
		INCLINATION_ANGLE=0.00
		PRESSURE=1013.20
		TEMPERATURE=20.00
		NORM_TEMPERATURE=20.00
		CORRECTION_FACTOR=1.0000;
		BEGIN_DATA
			-5.0		7.3049e-04		1.0000e+00
			-4.95		7.3173e-04		1.0000e+00
			-4.9		7.3297e-04		1.0000e+00
			-4.85		7.3421e-04		1.0000e+00
			-4.8		7.3545e-04		1.0000e+00
			-4.75		7.4737e-04		1.0000e+00
			-4.7		7.5929e-04		1.0000e+00
			-4.65		7.7121e-04		1.0000e+00
			-4.6		7.8313e-04		1.0000e+00
			-4.55		7.8496e-04		1.0000e+00
			-4.5		7.8678e-04		1.0000e+00
			-4.45		7.8861e-04		1.0000e+00
			-4.4		7.9043e-04		1.0000e+00
			-4.35		8.0240e-04		1.0000e+00
			-4.3		8.1438e-04		1.0000e+00
			-4.25		8.2635e-04		1.0000e+00
			-4.2		8.3832e-04		1.0000e+00
			-4.15		8.4251e-04		1.0000e+00
			-4.1		8.4670e-04		1.0000e+00
			-4.05		8.5089e-04		1.0000e+00
			-4.0		8.5508e-04		1.0000e+00
			-3.95		8.6453e-04		1.0000e+00
			-3.9		8.7397e-04		1.0000e+00
			-3.85		8.8342e-04		1.0000e+00
			-3.8		8.9286e-04		1.0000e+00
			-3.75		9.0066e-04		1.0000e+00
			-3.7		9.0846e-04		1.0000e+00
			-3.65		9.1626e-04		1.0000e+00
			-3.6		9.2405e-04		1.0000e+00
			-3.55		9.2934e-04		1.0000e+00
			-3.5		9.3462e-04		1.0000e+00
			-3.45		9.3991e-04		1.0000e+00
			-3.4		9.4519e-04		1.0000e+00
			-3.35		9.5737e-04		1.0000e+00
			-3.3		9.6954e-04		1.0000e+00
			-3.25		9.8172e-04		1.0000e+00
			-3.2		9.9390e-04		1.0000e+00
			-3.15		9.9631e-04		1.0000e+00
			-3.1		9.9873e-04		1.0000e+00
			-3.05		1.0011e-03		1.0000e+00
			-3.0		1.0036e-03		1.0000e+00
			-2.95		1.0184e-03		1.0000e+00
			-2.9		1.0333e-03		1.0000e+00
			-2.85		1.0481e-03		1.0000e+00
			-2.8		1.0630e-03		1.0000e+00
			-2.75		1.0644e-03		1.0000e+00
			-2.7		1.0659e-03		1.0000e+00
			-2.65		1.0673e-03		1.0000e+00
			-2.6		1.0688e-03		1.0000e+00
			-2.55		1.0835e-03		1.0000e+00
			-2.5		1.0982e-03		1.0000e+00
			-2.45		1.1129e-03		1.0000e+00
			-2.4		1.1276e-03		1.0000e+00
			-2.35		1.1321e-03		1.0000e+00
			-2.3		1.1366e-03		1.0000e+00
			-2.25		1.1411e-03		1.0000e+00
			-2.2		1.1456e-03		1.0000e+00
			-2.15		1.1569e-03		1.0000e+00
			-2.1		1.1682e-03		1.0000e+00
			-2.05		1.1794e-03		1.0000e+00
			-2.0		1.1907e-03		1.0000e+00
			-1.95		1.1997e-03		1.0000e+00
			-1.9		1.2087e-03		1.0000e+00
			-1.85		1.2177e-03		1.0000e+00
			-1.8		1.2267e-03		1.0000e+00
			-1.75		1.2330e-03		1.0000e+00
			-1.7		1.2393e-03		1.0000e+00
			-1.65		1.2456e-03		1.0000e+00
			-1.6		1.2519e-03		1.0000e+00
			-1.55		1.2670e-03		1.0000e+00
			-1.5		1.2821e-03		1.0000e+00
			-1.45		1.2972e-03		1.0000e+00
			-1.4		1.3123e-03		1.0000e+00
			-1.35		1.3153e-03		1.0000e+00
			-1.3		1.3184e-03		1.0000e+00
			-1.25		1.3214e-03		1.0000e+00
			-1.2		1.3244e-03		1.0000e+00
			-1.15		1.3427e-03		1.0000e+00
			-1.1		1.3609e-03		1.0000e+00
			-1.05		1.3791e-03		1.0000e+00
			-1.0		1.3974e-03		1.0000e+00
			-0.95		1.3993e-03		1.0000e+00
			-0.9		1.4012e-03		1.0000e+00
			-0.85		1.4031e-03		1.0000e+00
			-0.8		1.4050e-03		1.0000e+00
			-0.75		1.4229e-03		1.0000e+00
			-0.7		1.4408e-03		1.0000e+00
			-0.65		1.4587e-03		1.0000e+00
			-0.6		1.4767e-03		1.0000e+00
			-0.55		1.4824e-03		1.0000e+00
			-0.5		1.4880e-03		1.0000e+00
			-0.45		1.4937e-03		1.0000e+00
			-0.4		1.4994e-03		1.0000e+00
			-0.35		1.5129e-03		1.0000e+00
			-0.3		1.5264e-03		1.0000e+00
			-0.25		1.5399e-03		1.0000e+00
			-0.2		1.5533e-03		1.0000e+00
			-0.15		1.5646e-03		1.0000e+00
			-0.1		1.5758e-03		1.0000e+00
			-0.05		1.5871e-03		1.0000e+00
			-0.0		1.5983e-03		1.0000e+00
			0.05		1.6057e-03		1.0000e+00
			0.1		1.6130e-03		1.0000e+00
			0.15		1.6204e-03		1.0000e+00
			0.2		1.6277e-03		1.0000e+00
			0.25		1.6462e-03		1.0000e+00
			0.3		1.6647e-03		1.0000e+00
			0.35		1.6832e-03		1.0000e+00
			0.4		1.7017e-03		1.0000e+00
			0.45		1.7051e-03		1.0000e+00
			0.5		1.7085e-03		1.0000e+00
			0.55		1.7118e-03		1.0000e+00
			0.6		1.7152e-03		1.0000e+00
			0.65		1.7373e-03		1.0000e+00
			0.7		1.7594e-03		1.0000e+00
			0.75		1.7815e-03		1.0000e+00
			0.8		1.8036e-03		1.0000e+00
			0.85		1.8058e-03		1.0000e+00
			0.9		1.8080e-03		1.0000e+00
			0.95		1.8101e-03		1.0000e+00
			1.0		1.8123e-03		1.0000e+00
			1.05		1.8337e-03		1.0000e+00
			1.1		1.8551e-03		1.0000e+00
			1.15		1.8766e-03		1.0000e+00
			1.2		1.8980e-03		1.0000e+00
			1.25		1.9047e-03		1.0000e+00
			1.3		1.9114e-03		1.0000e+00
			1.35		1.9182e-03		1.0000e+00
			1.4		1.9249e-03		1.0000e+00
			1.45		1.9408e-03		1.0000e+00
			1.5		1.9568e-03		1.0000e+00
			1.55		1.9727e-03		1.0000e+00
			1.6		1.9886e-03		1.0000e+00
			1.65		2.0021e-03		1.0000e+00
			1.7		2.0155e-03		1.0000e+00
			1.75		2.0290e-03		1.0000e+00
			1.8		2.0425e-03		1.0000e+00
			1.85		2.0510e-03		1.0000e+00
			1.9		2.0594e-03		1.0000e+00
			1.95		2.0679e-03		1.0000e+00
			2.0		2.0764e-03		1.0000e+00
			2.05		2.0985e-03		1.0000e+00
			2.1		2.1205e-03		1.0000e+00
			2.15		2.1426e-03		1.0000e+00
			2.2		2.1647e-03		1.0000e+00
			2.25		2.1683e-03		1.0000e+00
			2.3		2.1719e-03		1.0000e+00
			2.35		2.1754e-03		1.0000e+00
			2.4		2.1790e-03		1.0000e+00
			2.45		2.2055e-03		1.0000e+00
			2.5		2.2320e-03		1.0000e+00
			2.55		2.2584e-03		1.0000e+00
			2.6		2.2849e-03		1.0000e+00
			2.65		2.2872e-03		1.0000e+00
			2.7		2.2895e-03		1.0000e+00
			2.75		2.2918e-03		1.0000e+00
			2.8		2.2940e-03		1.0000e+00
			2.85		2.3197e-03		1.0000e+00
			2.9		2.3454e-03		1.0000e+00
			2.95		2.3711e-03		1.0000e+00
			3.0		2.3967e-03		1.0000e+00
			3.05		2.4043e-03		1.0000e+00
			3.1		2.4119e-03		1.0000e+00
			3.15		2.4195e-03		1.0000e+00
			3.2		2.4271e-03		1.0000e+00
			3.25		2.4464e-03		1.0000e+00
			3.3		2.4657e-03		1.0000e+00
			3.35		2.4849e-03		1.0000e+00
			3.4		2.5042e-03		1.0000e+00
			3.45		2.5193e-03		1.0000e+00
			3.5		2.5344e-03		1.0000e+00
			3.55		2.5496e-03		1.0000e+00
			3.6		2.5647e-03		1.0000e+00
			3.65		2.5888e-03		1.0000e+00
			3.7		2.6129e-03		1.0000e+00
			3.75		2.6371e-03		1.0000e+00
			3.8		2.6612e-03		1.0000e+00
			3.85		2.7212e-03		1.0000e+00
			3.9		2.7812e-03		1.0000e+00
			3.95		2.8412e-03		1.0000e+00
			4.0		2.9012e-03		1.0000e+00
			4.05		2.9245e-03		1.0000e+00
			4.1		2.9478e-03		1.0000e+00
			4.15		2.9711e-03		1.0000e+00
			4.2		2.9944e-03		1.0000e+00
			4.25		3.1634e-03		1.0000e+00
			4.3		3.3324e-03		1.0000e+00
			4.35		3.5014e-03		1.0000e+00
			4.4		3.6704e-03		1.0000e+00
			4.45		3.6852e-03		1.0000e+00
			4.5		3.7000e-03		1.0000e+00
			4.55		3.7147e-03		1.0000e+00
			4.6		3.7295e-03		1.0000e+00
			4.65		3.9282e-03		1.0000e+00
			4.7		4.1270e-03		1.0000e+00
			4.75		4.3257e-03		1.0000e+00
			4.8		4.5245e-03		1.0000e+00
			4.85		4.5858e-03		1.0000e+00
			4.9		4.6471e-03		1.0000e+00
			4.95		4.7084e-03		1.0000e+00
			5.0		4.7697e-03		1.0000e+00
			5.05		4.9460e-03		1.0000e+00
			5.1		5.1223e-03		1.0000e+00
			5.15		5.2987e-03		1.0000e+00
			5.2		5.4750e-03		1.0000e+00
			5.25		5.6256e-03		1.0000e+00
			5.3		5.7762e-03		1.0000e+00
			5.35		5.9268e-03		1.0000e+00
			5.4		6.0774e-03		1.0000e+00
			5.45		6.1891e-03		1.0000e+00
			5.5		6.3007e-03		1.0000e+00
			5.55		6.4124e-03		1.0000e+00
			5.6		6.5241e-03		1.0000e+00
			5.65		6.8222e-03		1.0000e+00
			5.7		7.1203e-03		1.0000e+00
			5.75		7.4184e-03		1.0000e+00
			5.8		7.7166e-03		1.0000e+00
			5.85		7.7709e-03		1.0000e+00
			5.9		7.8253e-03		1.0000e+00
			5.95		7.8797e-03		1.0000e+00
			6.0		7.9341e-03		1.0000e+00
			6.05		8.3524e-03		1.0000e+00
			6.1		8.7707e-03		1.0000e+00
			6.15		9.1890e-03		1.0000e+00
			6.2		9.6072e-03		1.0000e+00
			6.25		9.6418e-03		1.0000e+00
			6.3		9.6763e-03		1.0000e+00
			6.35		9.7108e-03		1.0000e+00
			6.4		9.7454e-03		1.0000e+00
			6.45		1.0216e-02		1.0000e+00
			6.5		1.0686e-02		1.0000e+00
			6.55		1.1156e-02		1.0000e+00
			6.6		1.1626e-02		1.0000e+00
			6.65		1.1769e-02		1.0000e+00
			6.7		1.1912e-02		1.0000e+00
			6.75		1.2056e-02		1.0000e+00
			6.8		1.2199e-02		1.0000e+00
			6.85		1.2600e-02		1.0000e+00
			6.9		1.3001e-02		1.0000e+00
			6.95		1.3402e-02		1.0000e+00
			7.0		1.3803e-02		1.0000e+00
			7.05		1.4145e-02		1.0000e+00
			7.1		1.4487e-02		1.0000e+00
			7.15		1.4830e-02		1.0000e+00
			7.2		1.5172e-02		1.0000e+00
			7.25		1.5414e-02		1.0000e+00
			7.3		1.5655e-02		1.0000e+00
			7.35		1.5897e-02		1.0000e+00
			7.4		1.6139e-02		1.0000e+00
			7.45		1.6784e-02		1.0000e+00
			7.5		1.7429e-02		1.0000e+00
			7.55		1.8074e-02		1.0000e+00
			7.6		1.8719e-02		1.0000e+00
			7.65		1.8832e-02		1.0000e+00
			7.7		1.8944e-02		1.0000e+00
			7.75		1.9057e-02		1.0000e+00
			7.8		1.9169e-02		1.0000e+00
			7.85		2.0036e-02		1.0000e+00
			7.9		2.0904e-02		1.0000e+00
			7.95		2.1771e-02		1.0000e+00
			8.0		2.2638e-02		1.0000e+00
			8.05		2.2714e-02		1.0000e+00
			8.1		2.2790e-02		1.0000e+00
			8.15		2.2865e-02		1.0000e+00
			8.2		2.2941e-02		1.0000e+00
			8.25		2.3880e-02		1.0000e+00
			8.3		2.4819e-02		1.0000e+00
			8.35		2.5758e-02		1.0000e+00
			8.4		2.6697e-02		1.0000e+00
			8.45		2.6988e-02		1.0000e+00
			8.5		2.7278e-02		1.0000e+00
			8.55		2.7569e-02		1.0000e+00
			8.6		2.7860e-02		1.0000e+00
			8.65		2.8624e-02		1.0000e+00
			8.7		2.9389e-02		1.0000e+00
			8.75		3.0153e-02		1.0000e+00
			8.8		3.0917e-02		1.0000e+00
			8.85		3.1585e-02		1.0000e+00
			8.9		3.2253e-02		1.0000e+00
			8.95		3.2921e-02		1.0000e+00
			9.0		3.3589e-02		1.0000e+00
			9.05		3.4033e-02		1.0000e+00
			9.1		3.4477e-02		1.0000e+00
			9.15		3.4921e-02		1.0000e+00
			9.2		3.5365e-02		1.0000e+00
			9.25		3.6567e-02		1.0000e+00
			9.3		3.7770e-02		1.0000e+00
			9.35		3.8972e-02		1.0000e+00
			9.4		4.0174e-02		1.0000e+00
			9.45		4.0371e-02		1.0000e+00
			9.5		4.0567e-02		1.0000e+00
			9.55		4.0764e-02		1.0000e+00
			9.6		4.0961e-02		1.0000e+00
			9.65		4.2516e-02		1.0000e+00
			9.7		4.4071e-02		1.0000e+00
			9.75		4.5626e-02		1.0000e+00
			9.8		4.7182e-02		1.0000e+00
			9.85		4.7320e-02		1.0000e+00
			9.9		4.7458e-02		1.0000e+00
			9.95		4.7596e-02		1.0000e+00
			10.0		4.7734e-02		1.0000e+00
			10.05		4.9365e-02		1.0000e+00
			10.1		5.0996e-02		1.0000e+00
			10.15		5.2627e-02		1.0000e+00
			10.2		5.4259e-02		1.0000e+00
			10.25		5.4773e-02		1.0000e+00
			10.3		5.5287e-02		1.0000e+00
			10.35		5.5801e-02		1.0000e+00
			10.4		5.6315e-02		1.0000e+00
			10.45		5.7588e-02		1.0000e+00
			10.5		5.8861e-02		1.0000e+00
			10.55		6.0134e-02		1.0000e+00
			10.6		6.1406e-02		1.0000e+00
			10.65		6.2537e-02		1.0000e+00
			10.7		6.3668e-02		1.0000e+00
			10.75		6.4799e-02		1.0000e+00
			10.8		6.5930e-02		1.0000e+00
			10.85		6.6647e-02		1.0000e+00
			10.9		6.7365e-02		1.0000e+00
			10.95		6.8083e-02		1.0000e+00
			11.0		6.8801e-02		1.0000e+00
			11.05		7.0752e-02		1.0000e+00
			11.1		7.2704e-02		1.0000e+00
			11.15		7.4655e-02		1.0000e+00
			11.2		7.6606e-02		1.0000e+00
			11.25		7.6917e-02		1.0000e+00
			11.3		7.7228e-02		1.0000e+00
			11.35		7.7539e-02		1.0000e+00
			11.4		7.7850e-02		1.0000e+00
			11.45		8.0291e-02		1.0000e+00
			11.5		8.2733e-02		1.0000e+00
			11.55		8.5175e-02		1.0000e+00
			11.6		8.7617e-02		1.0000e+00
			11.65		8.7847e-02		1.0000e+00
			11.7		8.8078e-02		1.0000e+00
			11.75		8.8309e-02		1.0000e+00
			11.8		8.8540e-02		1.0000e+00
			11.85		9.0990e-02		1.0000e+00
			11.9		9.3440e-02		1.0000e+00
			11.95		9.5889e-02		1.0000e+00
			12.0		9.8339e-02		1.0000e+00
			12.05		7.7824e-02		1.0000e+00
			12.1		5.7309e-02		1.0000e+00
			12.15		3.6794e-02		1.0000e+00
			12.2		1.6279e-02		1.0000e+00
			12.25		5.3262e-02		1.0000e+00
			12.3		9.0246e-02		1.0000e+00
			12.35		1.2723e-01		1.0000e+00
			12.4		1.6421e-01		1.0000e+00
			12.45		2.0121e-01		1.0000e+00
			12.5		2.3821e-01		1.0000e+00
			12.55		2.7521e-01		1.0000e+00
			12.6		3.1221e-01		1.0000e+00
			12.65		3.4922e-01		1.0000e+00
			12.7		3.8624e-01		1.0000e+00
			12.75		4.2325e-01		1.0000e+00
			12.8		4.6027e-01		1.0000e+00
			12.85		4.9730e-01		1.0000e+00
			12.9		5.3433e-01		1.0000e+00
			12.95		5.7136e-01		1.0000e+00
			13.0		6.0839e-01		1.0000e+00
			13.05		6.1565e-01		1.0000e+00
			13.1		6.2291e-01		1.0000e+00
			13.15		6.3017e-01		1.0000e+00
			13.2		6.3742e-01		1.0000e+00
			13.25		6.4469e-01		1.0000e+00
			13.3		6.5195e-01		1.0000e+00
			13.35		6.5921e-01		1.0000e+00
			13.4		6.6647e-01		1.0000e+00
			13.45		6.7373e-01		1.0000e+00
			13.5		6.8100e-01		1.0000e+00
			13.55		6.8826e-01		1.0000e+00
			13.6		6.9552e-01		1.0000e+00
			13.65		7.0279e-01		1.0000e+00
			13.7		7.1005e-01		1.0000e+00
			13.75		7.1732e-01		1.0000e+00
			13.8		7.2459e-01		1.0000e+00
			13.85		7.3140e-01		1.0000e+00
			13.9		7.3822e-01		1.0000e+00
			13.95		7.4504e-01		1.0000e+00
			14.0		7.5186e-01		1.0000e+00
			14.05		7.5868e-01		1.0000e+00
			14.1		7.6550e-01		1.0000e+00
			14.15		7.7232e-01		1.0000e+00
			14.2		7.7914e-01		1.0000e+00
			14.25		7.8597e-01		1.0000e+00
			14.3		7.9279e-01		1.0000e+00
			14.35		7.9961e-01		1.0000e+00
			14.4		8.0643e-01		1.0000e+00
			14.45		8.1326e-01		1.0000e+00
			14.5		8.2008e-01		1.0000e+00
			14.55		8.2691e-01		1.0000e+00
			14.6		8.3373e-01		1.0000e+00
			14.65		8.4143e-01		1.0000e+00
			14.7		8.4912e-01		1.0000e+00
			14.75		8.5682e-01		1.0000e+00
			14.8		8.6452e-01		1.0000e+00
			14.85		8.7222e-01		1.0000e+00
			14.9		8.7992e-01		1.0000e+00
			14.95		8.8762e-01		1.0000e+00
			15.0		8.9531e-01		1.0000e+00
			15.05		9.0302e-01		1.0000e+00
			15.1		9.1072e-01		1.0000e+00
			15.15		9.1842e-01		1.0000e+00
			15.2		9.2612e-01		1.0000e+00
			15.25		9.3382e-01		1.0000e+00
			15.3		9.4153e-01		1.0000e+00
			15.35		9.4923e-01		1.0000e+00
			15.4		9.5693e-01		1.0000e+00
			15.45		9.6764e-01		1.0000e+00
			15.5		9.7835e-01		1.0000e+00
			15.55		9.8905e-01		1.0000e+00
			15.6		9.9976e-01		1.0000e+00
			15.65		1.0105e+00		1.0000e+00
			15.7		1.0212e+00		1.0000e+00
			15.75		1.0319e+00		1.0000e+00
			15.8		1.0426e+00		1.0000e+00
			15.85		1.0533e+00		1.0000e+00
			15.9		1.0640e+00		1.0000e+00
			15.95		1.0747e+00		1.0000e+00
			16.0		1.0854e+00		1.0000e+00
			16.05		1.0962e+00		1.0000e+00
			16.1		1.1069e+00		1.0000e+00
			16.15		1.1176e+00		1.0000e+00
			16.2		1.1283e+00		1.0000e+00
			16.25		1.1458e+00		1.0000e+00
			16.3		1.1634e+00		1.0000e+00
			16.35		1.1809e+00		1.0000e+00
			16.4		1.1984e+00		1.0000e+00
			16.45		1.2160e+00		1.0000e+00
			16.5		1.2335e+00		1.0000e+00
			16.55		1.2510e+00		1.0000e+00
			16.6		1.2686e+00		1.0000e+00
			16.65		1.2866e+00		1.0000e+00
			16.7		1.3047e+00		1.0000e+00
			16.75		1.3228e+00		1.0000e+00
			16.8		1.3409e+00		1.0000e+00
			16.85		1.3590e+00		1.0000e+00
			16.9		1.3771e+00		1.0000e+00
			16.95		1.3952e+00		1.0000e+00
			17.0		1.4132e+00		1.0000e+00
			17.05		1.4670e+00		1.0000e+00
			17.1		1.5208e+00		1.0000e+00
			17.15		1.5746e+00		1.0000e+00
			17.2		1.6283e+00		1.0000e+00
			17.25		1.7958e+00		1.0000e+00
			17.3		1.9632e+00		1.0000e+00
			17.35		2.1307e+00		1.0000e+00
			17.4		2.2981e+00		1.0000e+00
			17.45		2.6306e+00		1.0000e+00
			17.5		2.9630e+00		1.0000e+00
			17.55		3.2954e+00		1.0000e+00
			17.6		3.6279e+00		1.0000e+00
			17.65		3.8731e+00		1.0000e+00
			17.7		4.1184e+00		1.0000e+00
			17.75		4.3637e+00		1.0000e+00
			17.8		4.6090e+00		1.0000e+00
			17.85		4.6777e+00		1.0000e+00
			17.9		4.7464e+00		1.0000e+00
			17.95		4.8151e+00		1.0000e+00
			18.0		4.8839e+00		1.0000e+00
			18.05		4.9526e+00		1.0000e+00
			18.1		5.0213e+00		1.0000e+00
			18.15		5.0901e+00		1.0000e+00
			18.2		5.1588e+00		1.0000e+00
			18.25		5.1889e+00		1.0000e+00
			18.3		5.2190e+00		1.0000e+00
			18.35		5.2491e+00		1.0000e+00
			18.4		5.2792e+00		1.0000e+00
			18.45		5.3093e+00		1.0000e+00
			18.5		5.3395e+00		1.0000e+00
			18.55		5.3696e+00		1.0000e+00
			18.6		5.3997e+00		1.0000e+00
			18.65		5.4089e+00		1.0000e+00
			18.7		5.4181e+00		1.0000e+00
			18.75		5.4273e+00		1.0000e+00
			18.8		5.4365e+00		1.0000e+00
			18.85		5.4457e+00		1.0000e+00
			18.9		5.4549e+00		1.0000e+00
			18.95		5.4641e+00		1.0000e+00
			19.0		5.4733e+00		1.0000e+00
			19.05		5.4825e+00		1.0000e+00
			19.1		5.4918e+00		1.0000e+00
			19.15		5.5010e+00		1.0000e+00
			19.2		5.5102e+00		1.0000e+00
			19.25		5.5194e+00		1.0000e+00
			19.3		5.5286e+00		1.0000e+00
			19.35		5.5378e+00		1.0000e+00
			19.4		5.5470e+00		1.0000e+00
			19.45		5.5556e+00		1.0000e+00
			19.5		5.5641e+00		1.0000e+00
			19.55		5.5727e+00		1.0000e+00
			19.6		5.5813e+00		1.0000e+00
			19.65		5.5899e+00		1.0000e+00
			19.7		5.5985e+00		1.0000e+00
			19.75		5.6070e+00		1.0000e+00
			19.8		5.6156e+00		1.0000e+00
			19.85		5.6242e+00		1.0000e+00
			19.9		5.6328e+00		1.0000e+00
			19.95		5.6414e+00		1.0000e+00
			20.0		5.6499e+00		1.0000e+00
			20.05		5.6585e+00		1.0000e+00
			20.1		5.6671e+00		1.0000e+00
			20.15		5.6757e+00		1.0000e+00
			20.2		5.6842e+00		1.0000e+00
			20.25		5.6911e+00		1.0000e+00
			20.3		5.6980e+00		1.0000e+00
			20.35		5.7050e+00		1.0000e+00
			20.4		5.7119e+00		1.0000e+00
			20.45		5.7188e+00		1.0000e+00
			20.5		5.7257e+00		1.0000e+00
			20.55		5.7326e+00		1.0000e+00
			20.6		5.7395e+00		1.0000e+00
			20.65		5.7464e+00		1.0000e+00
			20.7		5.7533e+00		1.0000e+00
			20.75		5.7602e+00		1.0000e+00
			20.8		5.7671e+00		1.0000e+00
			20.85		5.7740e+00		1.0000e+00
			20.9		5.7809e+00		1.0000e+00
			20.95		5.7878e+00		1.0000e+00
			21.0		5.7947e+00		1.0000e+00
			21.05		5.7992e+00		1.0000e+00
			21.1		5.8037e+00		1.0000e+00
			21.15		5.8082e+00		1.0000e+00
			21.2		5.8127e+00		1.0000e+00
			21.25		5.8172e+00		1.0000e+00
			21.3		5.8217e+00		1.0000e+00
			21.35		5.8262e+00		1.0000e+00
			21.4		5.8307e+00		1.0000e+00
			21.45		5.8352e+00		1.0000e+00
			21.5		5.8396e+00		1.0000e+00
			21.55		5.8441e+00		1.0000e+00
			21.6		5.8486e+00		1.0000e+00
			21.65		5.8531e+00		1.0000e+00
			21.7		5.8576e+00		1.0000e+00
			21.75		5.8621e+00		1.0000e+00
			21.8		5.8666e+00		1.0000e+00
			21.85		5.8697e+00		1.0000e+00
			21.9		5.8728e+00		1.0000e+00
			21.95		5.8759e+00		1.0000e+00
			22.0		5.8791e+00		1.0000e+00
			22.05		5.8822e+00		1.0000e+00
			22.1		5.8853e+00		1.0000e+00
			22.15		5.8884e+00		1.0000e+00
			22.2		5.8915e+00		1.0000e+00
			22.25		5.8946e+00		1.0000e+00
			22.3		5.8977e+00		1.0000e+00
			22.35		5.9008e+00		1.0000e+00
			22.4		5.9040e+00		1.0000e+00
			22.45		5.9071e+00		1.0000e+00
			22.5		5.9102e+00		1.0000e+00
			22.55		5.9133e+00		1.0000e+00
			22.6		5.9164e+00		1.0000e+00
			22.65		5.9187e+00		1.0000e+00
			22.7		5.9209e+00		1.0000e+00
			22.75		5.9232e+00		1.0000e+00
			22.8		5.9255e+00		1.0000e+00
			22.85		5.9278e+00		1.0000e+00
			22.9		5.9301e+00		1.0000e+00
			22.95		5.9324e+00		1.0000e+00
			23.0		5.9346e+00		1.0000e+00
			23.05		5.9369e+00		1.0000e+00
			23.1		5.9392e+00		1.0000e+00
			23.15		5.9415e+00		1.0000e+00
			23.2		5.9437e+00		1.0000e+00
			23.25		5.9460e+00		1.0000e+00
			23.3		5.9483e+00		1.0000e+00
			23.35		5.9506e+00		1.0000e+00
			23.4		5.9528e+00		1.0000e+00
			23.45		5.9553e+00		1.0000e+00
			23.5		5.9577e+00		1.0000e+00
			23.55		5.9602e+00		1.0000e+00
			23.6		5.9626e+00		1.0000e+00
			23.65		5.9651e+00		1.0000e+00
			23.7		5.9675e+00		1.0000e+00
			23.75		5.9700e+00		1.0000e+00
			23.8		5.9724e+00		1.0000e+00
			23.85		5.9748e+00		1.0000e+00
			23.9		5.9773e+00		1.0000e+00
			23.95		5.9797e+00		1.0000e+00
			24.0		5.9822e+00		1.0000e+00
			24.05		5.9846e+00		1.0000e+00
			24.1		5.9870e+00		1.0000e+00
			24.15		5.9895e+00		1.0000e+00
			24.2		5.9919e+00		1.0000e+00
			24.25		5.9938e+00		1.0000e+00
			24.3		5.9958e+00		1.0000e+00
			24.35		5.9977e+00		1.0000e+00
			24.4		5.9997e+00		1.0000e+00
			24.45		6.0016e+00		1.0000e+00
			24.5		6.0035e+00		1.0000e+00
			24.55		6.0055e+00		1.0000e+00
			24.6		6.0074e+00		1.0000e+00
			24.65		6.0093e+00		1.0000e+00
			24.7		6.0113e+00		1.0000e+00
			24.75		6.0132e+00		1.0000e+00
			24.8		6.0151e+00		1.0000e+00
			24.85		6.0171e+00		1.0000e+00
			24.9		6.0190e+00		1.0000e+00
			24.95		6.0209e+00		1.0000e+00
			25.0		6.0229e+00		1.0000e+00
			25.05		6.0209e+00		1.0000e+00
			25.1		6.0190e+00		1.0000e+00
			25.15		6.0171e+00		1.0000e+00
			25.2		6.0151e+00		1.0000e+00
			25.25		6.0132e+00		1.0000e+00
			25.3		6.0113e+00		1.0000e+00
			25.35		6.0093e+00		1.0000e+00
			25.4		6.0074e+00		1.0000e+00
			25.45		6.0054e+00		1.0000e+00
			25.5		6.0035e+00		1.0000e+00
			25.55		6.0015e+00		1.0000e+00
			25.6		5.9996e+00		1.0000e+00
			25.65		5.9977e+00		1.0000e+00
			25.7		5.9957e+00		1.0000e+00
			25.75		5.9938e+00		1.0000e+00
			25.8		5.9918e+00		1.0000e+00
			25.85		5.9894e+00		1.0000e+00
			25.9		5.9869e+00		1.0000e+00
			25.95		5.9845e+00		1.0000e+00
			26.0		5.9821e+00		1.0000e+00
			26.05		5.9796e+00		1.0000e+00
			26.1		5.9772e+00		1.0000e+00
			26.15		5.9747e+00		1.0000e+00
			26.2		5.9723e+00		1.0000e+00
			26.25		5.9698e+00		1.0000e+00
			26.3		5.9674e+00		1.0000e+00
			26.35		5.9649e+00		1.0000e+00
			26.4		5.9625e+00		1.0000e+00
			26.45		5.9600e+00		1.0000e+00
			26.5		5.9576e+00		1.0000e+00
			26.55		5.9551e+00		1.0000e+00
			26.6		5.9526e+00		1.0000e+00
			26.65		5.9504e+00		1.0000e+00
			26.7		5.9481e+00		1.0000e+00
			26.75		5.9459e+00		1.0000e+00
			26.8		5.9436e+00		1.0000e+00
			26.85		5.9413e+00		1.0000e+00
			26.9		5.9391e+00		1.0000e+00
			26.95		5.9368e+00		1.0000e+00
			27.0		5.9345e+00		1.0000e+00
			27.05		5.9323e+00		1.0000e+00
			27.1		5.9300e+00		1.0000e+00
			27.15		5.9277e+00		1.0000e+00
			27.2		5.9255e+00		1.0000e+00
			27.25		5.9232e+00		1.0000e+00
			27.3		5.9209e+00		1.0000e+00
			27.35		5.9187e+00		1.0000e+00
			27.4		5.9164e+00		1.0000e+00
			27.45		5.9133e+00		1.0000e+00
			27.5		5.9102e+00		1.0000e+00
			27.55		5.9070e+00		1.0000e+00
			27.6		5.9039e+00		1.0000e+00
			27.65		5.9008e+00		1.0000e+00
			27.7		5.8977e+00		1.0000e+00
			27.75		5.8946e+00		1.0000e+00
			27.8		5.8915e+00		1.0000e+00
			27.85		5.8884e+00		1.0000e+00
			27.9		5.8852e+00		1.0000e+00
			27.95		5.8821e+00		1.0000e+00
			28.0		5.8790e+00		1.0000e+00
			28.05		5.8759e+00		1.0000e+00
			28.1		5.8728e+00		1.0000e+00
			28.15		5.8696e+00		1.0000e+00
			28.2		5.8665e+00		1.0000e+00
			28.25		5.8620e+00		1.0000e+00
			28.3		5.8575e+00		1.0000e+00
			28.35		5.8531e+00		1.0000e+00
			28.4		5.8486e+00		1.0000e+00
			28.45		5.8441e+00		1.0000e+00
			28.5		5.8396e+00		1.0000e+00
			28.55		5.8351e+00		1.0000e+00
			28.6		5.8306e+00		1.0000e+00
			28.65		5.8261e+00		1.0000e+00
			28.7		5.8217e+00		1.0000e+00
			28.75		5.8172e+00		1.0000e+00
			28.8		5.8127e+00		1.0000e+00
			28.85		5.8082e+00		1.0000e+00
			28.9		5.8037e+00		1.0000e+00
			28.95		5.7992e+00		1.0000e+00
			29.0		5.7947e+00		1.0000e+00
			29.05		5.7878e+00		1.0000e+00
			29.1		5.7809e+00		1.0000e+00
			29.15		5.7740e+00		1.0000e+00
			29.2		5.7671e+00		1.0000e+00
			29.25		5.7602e+00		1.0000e+00
			29.3		5.7533e+00		1.0000e+00
			29.35		5.7464e+00		1.0000e+00
			29.4		5.7395e+00		1.0000e+00
			29.45		5.7326e+00		1.0000e+00
			29.5		5.7257e+00		1.0000e+00
			29.55		5.7188e+00		1.0000e+00
			29.6		5.7119e+00		1.0000e+00
			29.65		5.7050e+00		1.0000e+00
			29.7		5.6981e+00		1.0000e+00
			29.75		5.6912e+00		1.0000e+00
			29.8		5.6842e+00		1.0000e+00
			29.85		5.6757e+00		1.0000e+00
			29.9		5.6671e+00		1.0000e+00
			29.95		5.6585e+00		1.0000e+00
			30.0		5.6499e+00		1.0000e+00
			30.05		5.6414e+00		1.0000e+00
			30.1		5.6328e+00		1.0000e+00
			30.15		5.6242e+00		1.0000e+00
			30.2		5.6156e+00		1.0000e+00
			30.25		5.6070e+00		1.0000e+00
			30.3		5.5985e+00		1.0000e+00
			30.35		5.5899e+00		1.0000e+00
			30.4		5.5813e+00		1.0000e+00
			30.45		5.5727e+00		1.0000e+00
			30.5		5.5641e+00		1.0000e+00
			30.55		5.5555e+00		1.0000e+00
			30.6		5.5469e+00		1.0000e+00
			30.65		5.5377e+00		1.0000e+00
			30.7		5.5286e+00		1.0000e+00
			30.75		5.5194e+00		1.0000e+00
			30.8		5.5102e+00		1.0000e+00
			30.85		5.5010e+00		1.0000e+00
			30.9		5.4918e+00		1.0000e+00
			30.95		5.4826e+00		1.0000e+00
			31.0		5.4734e+00		1.0000e+00
			31.05		5.4642e+00		1.0000e+00
			31.1		5.4550e+00		1.0000e+00
			31.15		5.4458e+00		1.0000e+00
			31.2		5.4366e+00		1.0000e+00
			31.25		5.4274e+00		1.0000e+00
			31.3		5.4182e+00		1.0000e+00
			31.35		5.4090e+00		1.0000e+00
			31.4		5.3998e+00		1.0000e+00
			31.45		5.3697e+00		1.0000e+00
			31.5		5.3396e+00		1.0000e+00
			31.55		5.3095e+00		1.0000e+00
			31.6		5.2795e+00		1.0000e+00
			31.65		5.2494e+00		1.0000e+00
			31.7		5.2193e+00		1.0000e+00
			31.75		5.1892e+00		1.0000e+00
			31.8		5.1591e+00		1.0000e+00
			31.85		5.0915e+00		1.0000e+00
			31.9		5.0238e+00		1.0000e+00
			31.95		4.9561e+00		1.0000e+00
			32.0		4.8885e+00		1.0000e+00
			32.05		4.8213e+00		1.0000e+00
			32.1		4.7541e+00		1.0000e+00
			32.15		4.6870e+00		1.0000e+00
			32.2		4.6198e+00		1.0000e+00
			32.25		4.3716e+00		1.0000e+00
			32.3		4.1235e+00		1.0000e+00
			32.35		3.8753e+00		1.0000e+00
			32.4		3.6271e+00		1.0000e+00
			32.45		3.2911e+00		1.0000e+00
			32.5		2.9550e+00		1.0000e+00
			32.55		2.6190e+00		1.0000e+00
			32.6		2.2829e+00		1.0000e+00
			32.65		2.1193e+00		1.0000e+00
			32.7		1.9557e+00		1.0000e+00
			32.75		1.7921e+00		1.0000e+00
			32.8		1.6285e+00		1.0000e+00
			32.85		1.5736e+00		1.0000e+00
			32.9		1.5187e+00		1.0000e+00
			32.95		1.4638e+00		1.0000e+00
			33.0		1.4089e+00		1.0000e+00
			33.05		1.3914e+00		1.0000e+00
			33.1		1.3738e+00		1.0000e+00
			33.15		1.3563e+00		1.0000e+00
			33.2		1.3387e+00		1.0000e+00
			33.25		1.3212e+00		1.0000e+00
			33.3		1.3036e+00		1.0000e+00
			33.35		1.2861e+00		1.0000e+00
			33.4		1.2686e+00		1.0000e+00
			33.45		1.2510e+00		1.0000e+00
			33.5		1.2335e+00		1.0000e+00
			33.55		1.2159e+00		1.0000e+00
			33.6		1.1984e+00		1.0000e+00
			33.65		1.1809e+00		1.0000e+00
			33.7		1.1633e+00		1.0000e+00
			33.75		1.1458e+00		1.0000e+00
			33.8		1.1283e+00		1.0000e+00
			33.85		1.1176e+00		1.0000e+00
			33.9		1.1068e+00		1.0000e+00
			33.95		1.0961e+00		1.0000e+00
			34.0		1.0854e+00		1.0000e+00
			34.05		1.0747e+00		1.0000e+00
			34.1		1.0640e+00		1.0000e+00
			34.15		1.0533e+00		1.0000e+00
			34.2		1.0426e+00		1.0000e+00
			34.25		1.0318e+00		1.0000e+00
			34.3		1.0211e+00		1.0000e+00
			34.35		1.0104e+00		1.0000e+00
			34.4		9.9971e-01		1.0000e+00
			34.45		9.8900e-01		1.0000e+00
			34.5		9.7829e-01		1.0000e+00
			34.55		9.6758e-01		1.0000e+00
			34.6		9.5687e-01		1.0000e+00
			34.65		9.4918e-01		1.0000e+00
			34.7		9.4148e-01		1.0000e+00
			34.75		9.3378e-01		1.0000e+00
			34.8		9.2608e-01		1.0000e+00
			34.85		9.1838e-01		1.0000e+00
			34.9		9.1069e-01		1.0000e+00
			34.95		9.0299e-01		1.0000e+00
			35.0		8.9529e-01		1.0000e+00
			35.05		8.8760e-01		1.0000e+00
			35.1		8.7990e-01		1.0000e+00
			35.15		8.7221e-01		1.0000e+00
			35.2		8.6451e-01		1.0000e+00
			35.25		8.5682e-01		1.0000e+00
			35.3		8.4912e-01		1.0000e+00
			35.35		8.4143e-01		1.0000e+00
			35.4		8.3374e-01		1.0000e+00
			35.45		8.2691e-01		1.0000e+00
			35.5		8.2009e-01		1.0000e+00
			35.55		8.1326e-01		1.0000e+00
			35.6		8.0644e-01		1.0000e+00
			35.65		7.9962e-01		1.0000e+00
			35.7		7.9280e-01		1.0000e+00
			35.75		7.8597e-01		1.0000e+00
			35.8		7.7915e-01		1.0000e+00
			35.85		7.7233e-01		1.0000e+00
			35.9		7.6551e-01		1.0000e+00
			35.95		7.5869e-01		1.0000e+00
			36.0		7.5187e-01		1.0000e+00
			36.05		7.4505e-01		1.0000e+00
			36.1		7.3823e-01		1.0000e+00
			36.15		7.3141e-01		1.0000e+00
			36.2		7.2460e-01		1.0000e+00
			36.25		7.1733e-01		1.0000e+00
			36.3		7.1006e-01		1.0000e+00
			36.35		7.0280e-01		1.0000e+00
			36.4		6.9553e-01		1.0000e+00
			36.45		6.8827e-01		1.0000e+00
			36.5		6.8101e-01		1.0000e+00
			36.55		6.7375e-01		1.0000e+00
			36.6		6.6648e-01		1.0000e+00
			36.65		6.5922e-01		1.0000e+00
			36.7		6.5196e-01		1.0000e+00
			36.75		6.4470e-01		1.0000e+00
			36.8		6.3744e-01		1.0000e+00
			36.85		6.3018e-01		1.0000e+00
			36.9		6.2292e-01		1.0000e+00
			36.95		6.1567e-01		1.0000e+00
			37.0		6.0841e-01		1.0000e+00
			37.05		5.7138e-01		1.0000e+00
			37.1		5.3434e-01		1.0000e+00
			37.15		4.9731e-01		1.0000e+00
			37.2		4.6028e-01		1.0000e+00
			37.25		4.2326e-01		1.0000e+00
			37.3		3.8625e-01		1.0000e+00
			37.35		3.4923e-01		1.0000e+00
			37.4		3.1222e-01		1.0000e+00
			37.45		2.7522e-01		1.0000e+00
			37.5		2.3822e-01		1.0000e+00
			37.55		2.0122e-01		1.0000e+00
			37.6		1.6422e-01		1.0000e+00
			37.65		1.2723e-01		1.0000e+00
			37.7		9.0247e-02		1.0000e+00
			37.75		5.3263e-02		1.0000e+00
			37.8		1.6279e-02		1.0000e+00
			37.85		3.6793e-02		1.0000e+00
			37.9		5.7307e-02		1.0000e+00
			37.95		7.7822e-02		1.0000e+00
			38.0		9.8336e-02		1.0000e+00
			38.05		9.5888e-02		1.0000e+00
			38.1		9.3440e-02		1.0000e+00
			38.15		9.0992e-02		1.0000e+00
			38.2		8.8544e-02		1.0000e+00
			38.25		8.8312e-02		1.0000e+00
			38.3		8.8081e-02		1.0000e+00
			38.35		8.7849e-02		1.0000e+00
			38.4		8.7617e-02		1.0000e+00
			38.45		8.5175e-02		1.0000e+00
			38.5		8.2733e-02		1.0000e+00
			38.55		8.0291e-02		1.0000e+00
			38.6		7.7849e-02		1.0000e+00
			38.65		7.7540e-02		1.0000e+00
			38.7		7.7230e-02		1.0000e+00
			38.75		7.6921e-02		1.0000e+00
			38.8		7.6611e-02		1.0000e+00
			38.85		7.4659e-02		1.0000e+00
			38.9		7.2706e-02		1.0000e+00
			38.95		7.0754e-02		1.0000e+00
			39.0		6.8802e-02		1.0000e+00
			39.05		6.8085e-02		1.0000e+00
			39.1		6.7368e-02		1.0000e+00
			39.15		6.6651e-02		1.0000e+00
			39.2		6.5934e-02		1.0000e+00
			39.25		6.4802e-02		1.0000e+00
			39.3		6.3670e-02		1.0000e+00
			39.35		6.2537e-02		1.0000e+00
			39.4		6.1405e-02		1.0000e+00
			39.45		6.0134e-02		1.0000e+00
			39.5		5.8863e-02		1.0000e+00
			39.55		5.7592e-02		1.0000e+00
			39.6		5.6321e-02		1.0000e+00
			39.65		5.5804e-02		1.0000e+00
