BEGIN_SCAN_DATA
	FORMAT=CC-Export V1.9                  
	FILE_CREATION_DATE=
	LAST_MODIFIED=11-Jan-2023 11:56:47
	BEGIN_SCAN  1
		TASK_NAME=RayStation Phantom Profiles & PDDs
		PROGRAM=RayStation
		COMMENT=RayStation Script Export
		MEAS_DATE=11-Jan-2023 11:56:47
		LINAC=RayStation
		MODALITY=X
		ISOCENTER=1000.00
		INPLANE_AXIS=Y
		CROSSPLANE_AXIS=X
		DEPTH_AXIS=Z
		INPLANE_AXIS_DIR=GUN_TARGET
		CROSSPLANE_AXIS_DIR=LEFT_RIGHT
		DEPTH_AXIS_DIR=UP_DOWN
		ENERGY=6.3
		NOMINAL_DMAX=20.00
		SSD=1000.0
		SCD=1000.00
		WEDGE_ANGLE=0.00
		FIELD_INPLANE=150.0
		FIELD_CROSSPLANE=100.0
		FIELD_TYPE=IRREGULAR
		GANTRY=0.00
		GANTRY_UPRIGHT_POSITION=0
		GANTRY_ROTATION=CW
		COLL_ANGLE=0.00
		REF_FIELD_DEPTH=50.00
		REF_FIELD_DEFINED=ISOCENTER
		FIELD_INPLANE=150.0
		FIELD_CROSSPLANE=100.0
		SCAN_CURVETYPE=CROSSPLANE_PROFILE
		SCAN_DEPTH=50.0
		SCAN_OFFAXIS_INPLANE=0.00
		SCAN_OFFAXIS_CROSSPLANE=0.00
		SCAN_ANGLE=0.00
		SCAN_DIAGONAL=NOT_DIAGONAL
		SCAN_DIRECTION=NEGATIVE
		MEAS_MEDIUM=WATER
		MEAS_UNIT=cGy
		INCLINATION_ANGLE=0.00
		PRESSURE=1013.20
		TEMPERATURE=20.00
		NORM_TEMPERATURE=20.00
		CORRECTION_FACTOR=1.0000;
		BEGIN_DATA
			-30.05		0.0000e+00		1.0000e+00
			-30.0		0.0000e+00		1.0000e+00
			-29.95		0.0000e+00		1.0000e+00
			-29.9		0.0000e+00		1.0000e+00
			-29.85		0.0000e+00		1.0000e+00
			-29.8		0.0000e+00		1.0000e+00
			-29.75		0.0000e+00		1.0000e+00
			-29.7		0.0000e+00		1.0000e+00
			-29.65		0.0000e+00		1.0000e+00
			-29.6		0.0000e+00		1.0000e+00
			-29.55		1.7527e-09		1.0000e+00
			-29.5		1.9053e-05		1.0000e+00
			-29.45		3.8103e-05		1.0000e+00
			-29.4		5.7154e-05		1.0000e+00
			-29.35		7.6205e-05		1.0000e+00
			-29.3		9.3460e-05		1.0000e+00
			-29.25		1.1071e-04		1.0000e+00
			-29.2		1.2797e-04		1.0000e+00
			-29.15		1.4522e-04		1.0000e+00
			-29.1		1.4764e-04		1.0000e+00
			-29.05		1.5006e-04		1.0000e+00
			-29.0		1.5249e-04		1.0000e+00
			-28.95		1.5491e-04		1.0000e+00
			-28.9		1.5698e-04		1.0000e+00
			-28.85		1.5905e-04		1.0000e+00
			-28.8		1.6112e-04		1.0000e+00
			-28.75		1.6319e-04		1.0000e+00
			-28.7		1.6560e-04		1.0000e+00
			-28.65		1.6801e-04		1.0000e+00
			-28.6		1.7042e-04		1.0000e+00
			-28.55		1.7284e-04		1.0000e+00
			-28.5		1.7555e-04		1.0000e+00
			-28.45		1.7827e-04		1.0000e+00
			-28.4		1.8099e-04		1.0000e+00
			-28.35		1.8371e-04		1.0000e+00
			-28.3		1.8598e-04		1.0000e+00
			-28.25		1.8826e-04		1.0000e+00
			-28.2		1.9053e-04		1.0000e+00
			-28.15		1.9281e-04		1.0000e+00
			-28.1		1.9592e-04		1.0000e+00
			-28.05		1.9903e-04		1.0000e+00
			-28.0		2.0214e-04		1.0000e+00
			-27.95		2.0525e-04		1.0000e+00
			-27.9		2.0821e-04		1.0000e+00
			-27.85		2.1116e-04		1.0000e+00
			-27.8		2.1412e-04		1.0000e+00
			-27.75		2.1708e-04		1.0000e+00
			-27.7		2.1977e-04		1.0000e+00
			-27.65		2.2245e-04		1.0000e+00
			-27.6		2.2514e-04		1.0000e+00
			-27.55		2.2782e-04		1.0000e+00
			-27.5		2.3583e-04		1.0000e+00
			-27.45		2.4384e-04		1.0000e+00
			-27.4		2.5185e-04		1.0000e+00
			-27.35		2.5986e-04		1.0000e+00
			-27.3		2.8414e-04		1.0000e+00
			-27.25		3.0841e-04		1.0000e+00
			-27.2		3.3268e-04		1.0000e+00
			-27.15		3.5696e-04		1.0000e+00
			-27.1		3.8552e-04		1.0000e+00
			-27.05		4.1409e-04		1.0000e+00
			-27.0		4.4265e-04		1.0000e+00
			-26.95		4.7121e-04		1.0000e+00
			-26.9		5.0129e-04		1.0000e+00
			-26.85		5.3138e-04		1.0000e+00
			-26.8		5.6146e-04		1.0000e+00
			-26.75		5.9154e-04		1.0000e+00
			-26.7		6.2029e-04		1.0000e+00
			-26.65		6.4905e-04		1.0000e+00
			-26.6		6.7781e-04		1.0000e+00
			-26.55		7.0656e-04		1.0000e+00
			-26.5		7.3761e-04		1.0000e+00
			-26.45		7.6865e-04		1.0000e+00
			-26.4		7.9970e-04		1.0000e+00
			-26.35		8.3074e-04		1.0000e+00
			-26.3		8.7078e-04		1.0000e+00
			-26.25		9.1082e-04		1.0000e+00
			-26.2		9.5086e-04		1.0000e+00
			-26.15		9.9089e-04		1.0000e+00
			-26.1		1.0335e-03		1.0000e+00
			-26.05		1.0761e-03		1.0000e+00
			-26.0		1.1187e-03		1.0000e+00
			-25.95		1.1613e-03		1.0000e+00
			-25.9		1.2072e-03		1.0000e+00
			-25.85		1.2532e-03		1.0000e+00
			-25.8		1.2992e-03		1.0000e+00
			-25.75		1.3452e-03		1.0000e+00
			-25.7		1.3902e-03		1.0000e+00
			-25.65		1.4353e-03		1.0000e+00
			-25.6		1.4803e-03		1.0000e+00
			-25.55		1.5254e-03		1.0000e+00
			-25.5		1.5692e-03		1.0000e+00
			-25.45		1.6130e-03		1.0000e+00
			-25.4		1.6569e-03		1.0000e+00
			-25.35		1.7007e-03		1.0000e+00
			-25.3		1.7329e-03		1.0000e+00
			-25.25		1.7652e-03		1.0000e+00
			-25.2		1.7975e-03		1.0000e+00
			-25.15		1.8297e-03		1.0000e+00
			-25.1		1.8418e-03		1.0000e+00
			-25.05		1.8538e-03		1.0000e+00
			-25.0		1.8659e-03		1.0000e+00
			-24.95		1.8779e-03		1.0000e+00
			-24.9		1.8913e-03		1.0000e+00
			-24.85		1.9048e-03		1.0000e+00
			-24.8		1.9182e-03		1.0000e+00
			-24.75		1.9316e-03		1.0000e+00
			-24.7		1.9509e-03		1.0000e+00
			-24.65		1.9703e-03		1.0000e+00
			-24.6		1.9896e-03		1.0000e+00
			-24.55		2.0089e-03		1.0000e+00
			-24.5		2.0223e-03		1.0000e+00
			-24.45		2.0356e-03		1.0000e+00
			-24.4		2.0490e-03		1.0000e+00
			-24.35		2.0623e-03		1.0000e+00
			-24.3		2.0821e-03		1.0000e+00
			-24.25		2.1018e-03		1.0000e+00
			-24.2		2.1216e-03		1.0000e+00
			-24.15		2.1413e-03		1.0000e+00
			-24.1		2.1623e-03		1.0000e+00
			-24.05		2.1833e-03		1.0000e+00
			-24.0		2.2043e-03		1.0000e+00
			-23.95		2.2252e-03		1.0000e+00
			-23.9		2.2397e-03		1.0000e+00
			-23.85		2.2542e-03		1.0000e+00
			-23.8		2.2687e-03		1.0000e+00
			-23.75		2.2832e-03		1.0000e+00
			-23.7		2.3128e-03		1.0000e+00
			-23.65		2.3424e-03		1.0000e+00
			-23.6		2.3720e-03		1.0000e+00
			-23.55		2.4017e-03		1.0000e+00
			-23.5		2.4264e-03		1.0000e+00
			-23.45		2.4512e-03		1.0000e+00
			-23.4		2.4760e-03		1.0000e+00
			-23.35		2.5008e-03		1.0000e+00
			-23.3		2.5235e-03		1.0000e+00
			-23.25		2.5462e-03		1.0000e+00
			-23.2		2.5689e-03		1.0000e+00
			-23.15		2.5916e-03		1.0000e+00
			-23.1		2.6397e-03		1.0000e+00
			-23.05		2.6879e-03		1.0000e+00
			-23.0		2.7360e-03		1.0000e+00
			-22.95		2.7842e-03		1.0000e+00
			-22.9		2.8168e-03		1.0000e+00
			-22.85		2.8495e-03		1.0000e+00
			-22.8		2.8822e-03		1.0000e+00
			-22.75		2.9148e-03		1.0000e+00
			-22.7		2.9572e-03		1.0000e+00
			-22.65		2.9995e-03		1.0000e+00
			-22.6		3.0418e-03		1.0000e+00
			-22.55		3.0842e-03		1.0000e+00
			-22.5		3.1560e-03		1.0000e+00
			-22.45		3.2278e-03		1.0000e+00
			-22.4		3.2996e-03		1.0000e+00
			-22.35		3.3714e-03		1.0000e+00
			-22.3		3.4164e-03		1.0000e+00
			-22.25		3.4615e-03		1.0000e+00
			-22.2		3.5065e-03		1.0000e+00
			-22.15		3.5516e-03		1.0000e+00
			-22.1		3.6349e-03		1.0000e+00
			-22.05		3.7181e-03		1.0000e+00
			-22.0		3.8014e-03		1.0000e+00
			-21.95		3.8847e-03		1.0000e+00
			-21.9		3.9799e-03		1.0000e+00
			-21.85		4.0751e-03		1.0000e+00
			-21.8		4.1703e-03		1.0000e+00
			-21.75		4.2654e-03		1.0000e+00
			-21.7		4.3329e-03		1.0000e+00
			-21.65		4.4004e-03		1.0000e+00
			-21.6		4.4679e-03		1.0000e+00
			-21.55		4.5354e-03		1.0000e+00
			-21.5		4.6938e-03		1.0000e+00
			-21.45		4.8522e-03		1.0000e+00
			-21.4		5.0106e-03		1.0000e+00
			-21.35		5.1690e-03		1.0000e+00
			-21.3		5.2941e-03		1.0000e+00
			-21.25		5.4192e-03		1.0000e+00
			-21.2		5.5443e-03		1.0000e+00
			-21.15		5.6694e-03		1.0000e+00
			-21.1		5.7882e-03		1.0000e+00
			-21.05		5.9069e-03		1.0000e+00
			-21.0		6.0257e-03		1.0000e+00
			-20.95		6.1444e-03		1.0000e+00
			-20.9		6.4056e-03		1.0000e+00
			-20.85		6.6667e-03		1.0000e+00
			-20.8		6.9278e-03		1.0000e+00
			-20.75		7.1890e-03		1.0000e+00
			-20.7		7.3507e-03		1.0000e+00
			-20.65		7.5124e-03		1.0000e+00
			-20.6		7.6741e-03		1.0000e+00
			-20.55		7.8358e-03		1.0000e+00
			-20.5		8.0698e-03		1.0000e+00
			-20.45		8.3039e-03		1.0000e+00
			-20.4		8.5379e-03		1.0000e+00
			-20.35		8.7720e-03		1.0000e+00
			-20.3		9.1606e-03		1.0000e+00
			-20.25		9.5492e-03		1.0000e+00
			-20.2		9.9378e-03		1.0000e+00
			-20.15		1.0326e-02		1.0000e+00
			-20.1		1.0562e-02		1.0000e+00
			-20.05		1.0798e-02		1.0000e+00
			-20.0		1.1034e-02		1.0000e+00
			-19.95		1.1269e-02		1.0000e+00
			-19.9		1.1756e-02		1.0000e+00
			-19.85		1.2242e-02		1.0000e+00
			-19.8		1.2728e-02		1.0000e+00
			-19.75		1.3215e-02		1.0000e+00
			-19.7		1.3738e-02		1.0000e+00
			-19.65		1.4262e-02		1.0000e+00
			-19.6		1.4786e-02		1.0000e+00
			-19.55		1.5310e-02		1.0000e+00
			-19.5		1.5682e-02		1.0000e+00
			-19.45		1.6054e-02		1.0000e+00
			-19.4		1.6426e-02		1.0000e+00
			-19.35		1.6798e-02		1.0000e+00
			-19.3		1.7709e-02		1.0000e+00
			-19.25		1.8621e-02		1.0000e+00
			-19.2		1.9532e-02		1.0000e+00
			-19.15		2.0444e-02		1.0000e+00
			-19.1		2.1112e-02		1.0000e+00
			-19.05		2.1781e-02		1.0000e+00
			-19.0		2.2449e-02		1.0000e+00
			-18.95		2.3118e-02		1.0000e+00
			-18.9		2.3794e-02		1.0000e+00
			-18.85		2.4469e-02		1.0000e+00
			-18.8		2.5145e-02		1.0000e+00
			-18.75		2.5821e-02		1.0000e+00
			-18.7		2.7271e-02		1.0000e+00
			-18.65		2.8721e-02		1.0000e+00
			-18.6		3.0171e-02		1.0000e+00
			-18.55		3.1626e-02		1.0000e+00
			-18.5		8.0728e-02		1.0000e+00
			-18.45		1.2983e-01		1.0000e+00
			-18.4		1.7893e-01		1.0000e+00
			-18.35		2.2803e-01		1.0000e+00
			-18.3		2.7721e-01		1.0000e+00
			-18.25		3.2638e-01		1.0000e+00
			-18.2		3.7556e-01		1.0000e+00
			-18.15		4.2473e-01		1.0000e+00
			-18.1		4.2757e-01		1.0000e+00
			-18.05		4.3041e-01		1.0000e+00
			-18.0		4.3325e-01		1.0000e+00
			-17.95		4.3609e-01		1.0000e+00
			-17.9		4.3893e-01		1.0000e+00
			-17.85		4.4177e-01		1.0000e+00
			-17.8		4.4461e-01		1.0000e+00
			-17.75		4.4745e-01		1.0000e+00
			-17.7		4.5030e-01		1.0000e+00
			-17.65		4.5314e-01		1.0000e+00
			-17.6		4.5599e-01		1.0000e+00
			-17.55		4.5883e-01		1.0000e+00
			-17.5		4.6168e-01		1.0000e+00
			-17.45		4.6453e-01		1.0000e+00
			-17.4		4.6738e-01		1.0000e+00
			-17.35		4.7022e-01		1.0000e+00
			-17.3		4.7422e-01		1.0000e+00
			-17.25		4.7822e-01		1.0000e+00
			-17.2		4.8221e-01		1.0000e+00
			-17.15		4.8621e-01		1.0000e+00
			-17.1		4.9021e-01		1.0000e+00
			-17.05		4.9421e-01		1.0000e+00
			-17.0		4.9822e-01		1.0000e+00
			-16.95		5.0222e-01		1.0000e+00
			-16.9		5.0622e-01		1.0000e+00
			-16.85		5.1023e-01		1.0000e+00
			-16.8		5.1423e-01		1.0000e+00
			-16.75		5.1824e-01		1.0000e+00
			-16.7		5.2225e-01		1.0000e+00
			-16.65		5.2626e-01		1.0000e+00
			-16.6		5.3027e-01		1.0000e+00
			-16.55		5.3428e-01		1.0000e+00
			-16.5		5.3940e-01		1.0000e+00
			-16.45		5.4453e-01		1.0000e+00
			-16.4		5.4966e-01		1.0000e+00
			-16.35		5.5478e-01		1.0000e+00
			-16.3		5.5991e-01		1.0000e+00
			-16.25		5.6504e-01		1.0000e+00
			-16.2		5.7017e-01		1.0000e+00
			-16.15		5.7530e-01		1.0000e+00
			-16.1		5.8044e-01		1.0000e+00
			-16.05		5.8558e-01		1.0000e+00
			-16.0		5.9071e-01		1.0000e+00
			-15.95		5.9585e-01		1.0000e+00
			-15.9		6.0099e-01		1.0000e+00
			-15.85		6.0613e-01		1.0000e+00
			-15.8		6.1128e-01		1.0000e+00
			-15.75		6.1642e-01		1.0000e+00
			-15.7		6.2377e-01		1.0000e+00
			-15.65		6.3112e-01		1.0000e+00
			-15.6		6.3847e-01		1.0000e+00
			-15.55		6.4583e-01		1.0000e+00
			-15.5		6.5319e-01		1.0000e+00
			-15.45		6.6055e-01		1.0000e+00
			-15.4		6.6791e-01		1.0000e+00
			-15.35		6.7527e-01		1.0000e+00
			-15.3		6.8264e-01		1.0000e+00
			-15.25		6.9001e-01		1.0000e+00
			-15.2		6.9738e-01		1.0000e+00
			-15.15		7.0475e-01		1.0000e+00
			-15.1		7.1212e-01		1.0000e+00
			-15.05		7.1949e-01		1.0000e+00
			-15.0		7.2687e-01		1.0000e+00
			-14.95		7.3424e-01		1.0000e+00
			-14.9		7.4420e-01		1.0000e+00
			-14.85		7.5416e-01		1.0000e+00
			-14.8		7.6411e-01		1.0000e+00
			-14.75		7.7407e-01		1.0000e+00
			-14.7		7.8404e-01		1.0000e+00
			-14.65		7.9400e-01		1.0000e+00
			-14.6		8.0397e-01		1.0000e+00
			-14.55		8.1393e-01		1.0000e+00
			-14.5		8.2391e-01		1.0000e+00
			-14.45		8.3388e-01		1.0000e+00
			-14.4		8.4386e-01		1.0000e+00
			-14.35		8.5383e-01		1.0000e+00
			-14.3		8.6382e-01		1.0000e+00
			-14.25		8.7380e-01		1.0000e+00
			-14.2		8.8379e-01		1.0000e+00
			-14.15		8.9378e-01		1.0000e+00
			-14.1		9.1367e-01		1.0000e+00
			-14.05		9.3356e-01		1.0000e+00
			-14.0		9.5345e-01		1.0000e+00
			-13.95		9.7335e-01		1.0000e+00
			-13.9		9.9326e-01		1.0000e+00
			-13.85		1.0132e+00		1.0000e+00
			-13.8		1.0331e+00		1.0000e+00
			-13.75		1.0530e+00		1.0000e+00
			-13.7		1.0729e+00		1.0000e+00
			-13.65		1.0929e+00		1.0000e+00
			-13.6		1.1128e+00		1.0000e+00
			-13.55		1.1327e+00		1.0000e+00
			-13.5		1.1527e+00		1.0000e+00
			-13.45		1.1726e+00		1.0000e+00
			-13.4		1.1926e+00		1.0000e+00
			-13.35		1.2125e+00		1.0000e+00
			-13.3		1.2363e+00		1.0000e+00
			-13.25		1.2600e+00		1.0000e+00
			-13.2		1.2838e+00		1.0000e+00
			-13.15		1.3076e+00		1.0000e+00
			-13.1		1.3313e+00		1.0000e+00
			-13.05		1.3551e+00		1.0000e+00
			-13.0		1.3789e+00		1.0000e+00
			-12.95		1.4027e+00		1.0000e+00
			-12.9		1.4265e+00		1.0000e+00
			-12.85		1.4503e+00		1.0000e+00
			-12.8		1.4741e+00		1.0000e+00
			-12.75		1.4978e+00		1.0000e+00
			-12.7		1.5217e+00		1.0000e+00
			-12.65		1.5455e+00		1.0000e+00
			-12.6		1.5693e+00		1.0000e+00
			-12.55		1.5931e+00		1.0000e+00
			-12.5		1.6185e+00		1.0000e+00
			-12.45		1.6439e+00		1.0000e+00
			-12.4		1.6693e+00		1.0000e+00
			-12.35		1.6948e+00		1.0000e+00
			-12.3		1.7202e+00		1.0000e+00
			-12.25		1.7456e+00		1.0000e+00
			-12.2		1.7711e+00		1.0000e+00
			-12.15		1.7965e+00		1.0000e+00
			-12.1		1.8220e+00		1.0000e+00
			-12.05		1.8474e+00		1.0000e+00
			-12.0		1.8729e+00		1.0000e+00
			-11.95		1.8983e+00		1.0000e+00
			-11.9		1.9238e+00		1.0000e+00
			-11.85		1.9493e+00		1.0000e+00
			-11.8		1.9747e+00		1.0000e+00
			-11.75		2.0002e+00		1.0000e+00
			-11.7		2.0334e+00		1.0000e+00
			-11.65		2.0665e+00		1.0000e+00
			-11.6		2.0996e+00		1.0000e+00
			-11.55		2.1328e+00		1.0000e+00
			-11.5		2.1660e+00		1.0000e+00
			-11.45		2.1991e+00		1.0000e+00
			-11.4		2.2323e+00		1.0000e+00
			-11.35		2.2655e+00		1.0000e+00
			-11.3		2.2987e+00		1.0000e+00
			-11.25		2.3318e+00		1.0000e+00
			-11.2		2.3650e+00		1.0000e+00
			-11.15		2.3982e+00		1.0000e+00
			-11.1		2.4314e+00		1.0000e+00
			-11.05		2.4647e+00		1.0000e+00
			-11.0		2.4979e+00		1.0000e+00
			-10.95		2.5311e+00		1.0000e+00
			-10.9		2.5748e+00		1.0000e+00
			-10.85		2.6185e+00		1.0000e+00
			-10.8		2.6622e+00		1.0000e+00
			-10.75		2.7059e+00		1.0000e+00
			-10.7		2.7496e+00		1.0000e+00
			-10.65		2.7934e+00		1.0000e+00
			-10.6		2.8371e+00		1.0000e+00
			-10.55		2.8809e+00		1.0000e+00
			-10.5		2.9246e+00		1.0000e+00
			-10.45		2.9684e+00		1.0000e+00
			-10.4		3.0122e+00		1.0000e+00
			-10.35		3.0559e+00		1.0000e+00
			-10.3		3.0997e+00		1.0000e+00
			-10.25		3.1435e+00		1.0000e+00
			-10.2		3.1873e+00		1.0000e+00
			-10.15		3.2311e+00		1.0000e+00
			-10.1		3.2871e+00		1.0000e+00
			-10.05		3.3431e+00		1.0000e+00
			-10.0		3.3992e+00		1.0000e+00
			-9.95		3.4552e+00		1.0000e+00
			-9.9		3.5113e+00		1.0000e+00
			-9.85		3.5674e+00		1.0000e+00
			-9.8		3.6235e+00		1.0000e+00
			-9.75		3.6795e+00		1.0000e+00
			-9.7		3.7356e+00		1.0000e+00
			-9.65		3.7917e+00		1.0000e+00
			-9.6		3.8478e+00		1.0000e+00
			-9.55		3.9039e+00		1.0000e+00
			-9.5		3.9601e+00		1.0000e+00
			-9.45		4.0162e+00		1.0000e+00
			-9.4		4.0723e+00		1.0000e+00
			-9.35		4.1285e+00		1.0000e+00
			-9.3		4.2476e+00		1.0000e+00
			-9.25		4.3668e+00		1.0000e+00
			-9.2		4.4859e+00		1.0000e+00
			-9.15		4.6050e+00		1.0000e+00
			-9.1		4.7242e+00		1.0000e+00
			-9.05		4.8434e+00		1.0000e+00
			-9.0		4.9626e+00		1.0000e+00
			-8.95		5.0818e+00		1.0000e+00
			-8.9		5.2009e+00		1.0000e+00
			-8.85		5.3201e+00		1.0000e+00
			-8.8		5.4392e+00		1.0000e+00
			-8.75		5.5584e+00		1.0000e+00
			-8.7		5.6774e+00		1.0000e+00
			-8.65		5.7964e+00		1.0000e+00
			-8.6		5.9154e+00		1.0000e+00
			-8.55		6.0345e+00		1.0000e+00
			-8.5		6.4185e+00		1.0000e+00
			-8.45		6.8025e+00		1.0000e+00
			-8.4		7.1864e+00		1.0000e+00
			-8.35		7.5705e+00		1.0000e+00
			-8.3		8.7968e+00		1.0000e+00
			-8.25		1.0023e+01		1.0000e+00
			-8.2		1.1249e+01		1.0000e+00
			-8.15		1.2476e+01		1.0000e+00
			-8.1		1.7835e+01		1.0000e+00
			-8.05		2.3194e+01		1.0000e+00
			-8.0		2.8553e+01		1.0000e+00
			-7.95		3.3911e+01		1.0000e+00
			-7.9		3.9161e+01		1.0000e+00
			-7.85		4.4411e+01		1.0000e+00
			-7.8		4.9661e+01		1.0000e+00
			-7.75		5.4910e+01		1.0000e+00
			-7.7		5.6597e+01		1.0000e+00
			-7.65		5.8284e+01		1.0000e+00
			-7.6		5.9971e+01		1.0000e+00
			-7.55		6.1658e+01		1.0000e+00
			-7.5		6.2206e+01		1.0000e+00
			-7.45		6.2753e+01		1.0000e+00
			-7.4		6.3301e+01		1.0000e+00
			-7.35		6.3849e+01		1.0000e+00
			-7.3		6.4130e+01		1.0000e+00
			-7.25		6.4411e+01		1.0000e+00
			-7.2		6.4692e+01		1.0000e+00
			-7.15		6.4973e+01		1.0000e+00
			-7.1		6.5133e+01		1.0000e+00
			-7.05		6.5292e+01		1.0000e+00
			-7.0		6.5451e+01		1.0000e+00
			-6.95		6.5610e+01		1.0000e+00
			-6.9		6.5679e+01		1.0000e+00
			-6.85		6.5747e+01		1.0000e+00
			-6.8		6.5816e+01		1.0000e+00
			-6.75		6.5884e+01		1.0000e+00
			-6.7		6.5959e+01		1.0000e+00
			-6.65		6.6033e+01		1.0000e+00
			-6.6		6.6107e+01		1.0000e+00
			-6.55		6.6182e+01		1.0000e+00
			-6.5		6.6251e+01		1.0000e+00
			-6.45		6.6321e+01		1.0000e+00
			-6.4		6.6391e+01		1.0000e+00
			-6.35		6.6460e+01		1.0000e+00
			-6.3		6.6530e+01		1.0000e+00
			-6.25		6.6600e+01		1.0000e+00
			-6.2		6.6669e+01		1.0000e+00
			-6.15		6.6739e+01		1.0000e+00
			-6.1		6.6775e+01		1.0000e+00
			-6.05		6.6812e+01		1.0000e+00
			-6.0		6.6848e+01		1.0000e+00
			-5.95		6.6885e+01		1.0000e+00
			-5.9		6.6921e+01		1.0000e+00
			-5.85		6.6958e+01		1.0000e+00
			-5.8		6.6994e+01		1.0000e+00
			-5.75		6.7031e+01		1.0000e+00
			-5.7		6.7067e+01		1.0000e+00
			-5.65		6.7104e+01		1.0000e+00
			-5.6		6.7140e+01		1.0000e+00
			-5.55		6.7176e+01		1.0000e+00
			-5.5		6.7213e+01		1.0000e+00
			-5.45		6.7249e+01		1.0000e+00
			-5.4		6.7285e+01		1.0000e+00
			-5.35		6.7321e+01		1.0000e+00
			-5.3		6.7343e+01		1.0000e+00
			-5.25		6.7364e+01		1.0000e+00
			-5.2		6.7385e+01		1.0000e+00
			-5.15		6.7406e+01		1.0000e+00
			-5.1		6.7428e+01		1.0000e+00
			-5.05		6.7449e+01		1.0000e+00
			-5.0		6.7470e+01		1.0000e+00
			-4.95		6.7491e+01		1.0000e+00
			-4.9		6.7512e+01		1.0000e+00
			-4.85		6.7533e+01		1.0000e+00
			-4.8		6.7554e+01		1.0000e+00
			-4.75		6.7575e+01		1.0000e+00
			-4.7		6.7596e+01		1.0000e+00
			-4.65		6.7617e+01		1.0000e+00
			-4.6		6.7638e+01		1.0000e+00
			-4.55		6.7659e+01		1.0000e+00
			-4.5		6.7669e+01		1.0000e+00
			-4.45		6.7680e+01		1.0000e+00
			-4.4		6.7690e+01		1.0000e+00
			-4.35		6.7700e+01		1.0000e+00
			-4.3		6.7711e+01		1.0000e+00
			-4.25		6.7721e+01		1.0000e+00
			-4.2		6.7731e+01		1.0000e+00
			-4.15		6.7741e+01		1.0000e+00
			-4.1		6.7752e+01		1.0000e+00
			-4.05		6.7762e+01		1.0000e+00
			-4.0		6.7772e+01		1.0000e+00
			-3.95		6.7782e+01		1.0000e+00
			-3.9		6.7792e+01		1.0000e+00
			-3.85		6.7802e+01		1.0000e+00
			-3.8		6.7812e+01		1.0000e+00
			-3.75		6.7822e+01		1.0000e+00
			-3.7		6.7825e+01		1.0000e+00
			-3.65		6.7828e+01		1.0000e+00
			-3.6		6.7831e+01		1.0000e+00
			-3.55		6.7834e+01		1.0000e+00
			-3.5		6.7837e+01		1.0000e+00
			-3.45		6.7840e+01		1.0000e+00
			-3.4		6.7843e+01		1.0000e+00
			-3.35		6.7846e+01		1.0000e+00
			-3.3		6.7849e+01		1.0000e+00
			-3.25		6.7852e+01		1.0000e+00
			-3.2		6.7855e+01		1.0000e+00
			-3.15		6.7857e+01		1.0000e+00
			-3.1		6.7860e+01		1.0000e+00
			-3.05		6.7863e+01		1.0000e+00
			-3.0		6.7866e+01		1.0000e+00
			-2.95		6.7868e+01		1.0000e+00
			-2.9		6.7870e+01		1.0000e+00
			-2.85		6.7873e+01		1.0000e+00
			-2.8		6.7875e+01		1.0000e+00
			-2.75		6.7877e+01		1.0000e+00
			-2.7		6.7879e+01		1.0000e+00
			-2.65		6.7881e+01		1.0000e+00
			-2.6		6.7883e+01		1.0000e+00
			-2.55		6.7885e+01		1.0000e+00
			-2.5		6.7887e+01		1.0000e+00
			-2.45		6.7889e+01		1.0000e+00
			-2.4		6.7891e+01		1.0000e+00
			-2.35		6.7893e+01		1.0000e+00
			-2.3		6.7895e+01		1.0000e+00
			-2.25		6.7897e+01		1.0000e+00
			-2.2		6.7899e+01		1.0000e+00
			-2.15		6.7901e+01		1.0000e+00
			-2.1		6.7890e+01		1.0000e+00
			-2.05		6.7880e+01		1.0000e+00
			-2.0		6.7870e+01		1.0000e+00
			-1.95		6.7860e+01		1.0000e+00
			-1.9		6.7850e+01		1.0000e+00
			-1.85		6.7840e+01		1.0000e+00
			-1.8		6.7829e+01		1.0000e+00
			-1.75		6.7819e+01		1.0000e+00
			-1.7		6.7809e+01		1.0000e+00
			-1.65		6.7799e+01		1.0000e+00
			-1.6		6.7788e+01		1.0000e+00
			-1.55		6.7778e+01		1.0000e+00
			-1.5		6.7767e+01		1.0000e+00
			-1.45		6.7757e+01		1.0000e+00
			-1.4		6.7746e+01		1.0000e+00
			-1.35		6.7736e+01		1.0000e+00
			-1.3		6.7725e+01		1.0000e+00
			-1.25		6.7713e+01		1.0000e+00
			-1.2		6.7702e+01		1.0000e+00
			-1.15		6.7690e+01		1.0000e+00
			-1.1		6.7679e+01		1.0000e+00
			-1.05		6.7667e+01		1.0000e+00
			-1.0		6.7656e+01		1.0000e+00
			-0.95		6.7644e+01		1.0000e+00
			-0.9		6.7632e+01		1.0000e+00
			-0.85		6.7621e+01		1.0000e+00
			-0.8		6.7609e+01		1.0000e+00
			-0.75		6.7597e+01		1.0000e+00
			-0.7		6.7586e+01		1.0000e+00
			-0.65		6.7574e+01		1.0000e+00
			-0.6		6.7562e+01		1.0000e+00
			-0.55		6.7550e+01		1.0000e+00
			-0.5		6.7549e+01		1.0000e+00
			-0.45		6.7547e+01		1.0000e+00
			-0.4		6.7545e+01		1.0000e+00
			-0.35		6.7544e+01		1.0000e+00
			-0.3		6.7542e+01		1.0000e+00
			-0.25		6.7540e+01		1.0000e+00
			-0.2		6.7538e+01		1.0000e+00
			-0.15		6.7536e+01		1.0000e+00
			-0.1		6.7534e+01		1.0000e+00
			-0.05		6.7532e+01		1.0000e+00
			0.0		6.7530e+01		1.0000e+00
			0.05		6.7528e+01		1.0000e+00
			0.1		6.7526e+01		1.0000e+00
			0.15		6.7524e+01		1.0000e+00
			0.2		6.7522e+01		1.0000e+00
			0.25		6.7520e+01		1.0000e+00
			0.3		6.7533e+01		1.0000e+00
			0.35		6.7546e+01		1.0000e+00
			0.4		6.7558e+01		1.0000e+00
			0.45		6.7571e+01		1.0000e+00
			0.5		6.7584e+01		1.0000e+00
			0.55		6.7596e+01		1.0000e+00
			0.6		6.7609e+01		1.0000e+00
			0.65		6.7621e+01		1.0000e+00
			0.7		6.7634e+01		1.0000e+00
			0.75		6.7646e+01		1.0000e+00
			0.8		6.7659e+01		1.0000e+00
			0.85		6.7671e+01		1.0000e+00
			0.9		6.7684e+01		1.0000e+00
			0.95		6.7696e+01		1.0000e+00
			1.0		6.7708e+01		1.0000e+00
			1.05		6.7721e+01		1.0000e+00
			1.1		6.7727e+01		1.0000e+00
			1.15		6.7734e+01		1.0000e+00
			1.2		6.7740e+01		1.0000e+00
			1.25		6.7747e+01		1.0000e+00
			1.3		6.7753e+01		1.0000e+00
			1.35		6.7760e+01		1.0000e+00
			1.4		6.7766e+01		1.0000e+00
			1.45		6.7773e+01		1.0000e+00
			1.5		6.7779e+01		1.0000e+00
			1.55		6.7785e+01		1.0000e+00
			1.6		6.7792e+01		1.0000e+00
			1.65		6.7798e+01		1.0000e+00
			1.7		6.7804e+01		1.0000e+00
			1.75		6.7811e+01		1.0000e+00
			1.8		6.7817e+01		1.0000e+00
			1.85		6.7823e+01		1.0000e+00
			1.9		6.7826e+01		1.0000e+00
			1.95		6.7829e+01		1.0000e+00
			2.0		6.7831e+01		1.0000e+00
			2.05		6.7834e+01		1.0000e+00
			2.1		6.7837e+01		1.0000e+00
			2.15		6.7839e+01		1.0000e+00
			2.2		6.7842e+01		1.0000e+00
			2.25		6.7845e+01		1.0000e+00
			2.3		6.7847e+01		1.0000e+00
			2.35		6.7850e+01		1.0000e+00
			2.4		6.7852e+01		1.0000e+00
			2.45		6.7855e+01		1.0000e+00
			2.5		6.7857e+01		1.0000e+00
			2.55		6.7860e+01		1.0000e+00
			2.6		6.7862e+01		1.0000e+00
			2.65		6.7864e+01		1.0000e+00
			2.7		6.7864e+01		1.0000e+00
			2.75		6.7864e+01		1.0000e+00
			2.8		6.7863e+01		1.0000e+00
			2.85		6.7863e+01		1.0000e+00
			2.9		6.7862e+01		1.0000e+00
			2.95		6.7862e+01		1.0000e+00
			3.0		6.7861e+01		1.0000e+00
			3.05		6.7861e+01		1.0000e+00
			3.1		6.7860e+01		1.0000e+00
			3.15		6.7860e+01		1.0000e+00
			3.2		6.7859e+01		1.0000e+00
			3.25		6.7858e+01		1.0000e+00
			3.3		6.7858e+01		1.0000e+00
			3.35		6.7857e+01		1.0000e+00
			3.4		6.7856e+01		1.0000e+00
			3.45		6.7855e+01		1.0000e+00
			3.5		6.7848e+01		1.0000e+00
			3.55		6.7840e+01		1.0000e+00
			3.6		6.7832e+01		1.0000e+00
			3.65		6.7825e+01		1.0000e+00
			3.7		6.7817e+01		1.0000e+00
			3.75		6.7809e+01		1.0000e+00
			3.8		6.7801e+01		1.0000e+00
			3.85		6.7793e+01		1.0000e+00
			3.9		6.7785e+01		1.0000e+00
			3.95		6.7777e+01		1.0000e+00
			4.0		6.7769e+01		1.0000e+00
			4.05		6.7762e+01		1.0000e+00
			4.1		6.7753e+01		1.0000e+00
			4.15		6.7745e+01		1.0000e+00
			4.2		6.7737e+01		1.0000e+00
			4.25		6.7729e+01		1.0000e+00
			4.3		6.7709e+01		1.0000e+00
			4.35		6.7689e+01		1.0000e+00
			4.4		6.7669e+01		1.0000e+00
			4.45		6.7650e+01		1.0000e+00
			4.5		6.7629e+01		1.0000e+00
			4.55		6.7609e+01		1.0000e+00
			4.6		6.7589e+01		1.0000e+00
			4.65		6.7569e+01		1.0000e+00
			4.7		6.7549e+01		1.0000e+00
			4.75		6.7529e+01		1.0000e+00
			4.8		6.7509e+01		1.0000e+00
			4.85		6.7489e+01		1.0000e+00
			4.9		6.7468e+01		1.0000e+00
			4.95		6.7448e+01		1.0000e+00
			5.0		6.7428e+01		1.0000e+00
			5.05		6.7407e+01		1.0000e+00
			5.1		6.7377e+01		1.0000e+00
			5.15		6.7346e+01		1.0000e+00
			5.2		6.7316e+01		1.0000e+00
			5.25		6.7285e+01		1.0000e+00
			5.3		6.7255e+01		1.0000e+00
			5.35		6.7224e+01		1.0000e+00
			5.4		6.7194e+01		1.0000e+00
			5.45		6.7163e+01		1.0000e+00
			5.5		6.7132e+01		1.0000e+00
			5.55		6.7102e+01		1.0000e+00
			5.6		6.7071e+01		1.0000e+00
			5.65		6.7040e+01		1.0000e+00
			5.7		6.7009e+01		1.0000e+00
			5.75		6.6978e+01		1.0000e+00
			5.8		6.6948e+01		1.0000e+00
			5.85		6.6917e+01		1.0000e+00
			5.9		6.6861e+01		1.0000e+00
			5.95		6.6806e+01		1.0000e+00
			6.0		6.6751e+01		1.0000e+00
			6.05		6.6695e+01		1.0000e+00
			6.1		6.6640e+01		1.0000e+00
			6.15		6.6585e+01		1.0000e+00
			6.2		6.6529e+01		1.0000e+00
			6.25		6.6474e+01		1.0000e+00
			6.3		6.6417e+01		1.0000e+00
			6.35		6.6360e+01		1.0000e+00
			6.4		6.6303e+01		1.0000e+00
			6.45		6.6246e+01		1.0000e+00
			6.5		6.6189e+01		1.0000e+00
			6.55		6.6132e+01		1.0000e+00
			6.6		6.6075e+01		1.0000e+00
			6.65		6.6018e+01		1.0000e+00
			6.7		6.5915e+01		1.0000e+00
			6.75		6.5813e+01		1.0000e+00
			6.8		6.5710e+01		1.0000e+00
			6.85		6.5607e+01		1.0000e+00
			6.9		6.5447e+01		1.0000e+00
			6.95		6.5287e+01		1.0000e+00
			7.0		6.5127e+01		1.0000e+00
			7.05		6.4967e+01		1.0000e+00
			7.1		6.4688e+01		1.0000e+00
			7.15		6.4409e+01		1.0000e+00
			7.2		6.4129e+01		1.0000e+00
			7.25		6.3850e+01		1.0000e+00
			7.3		6.3304e+01		1.0000e+00
			7.35		6.2758e+01		1.0000e+00
			7.4		6.2212e+01		1.0000e+00
			7.45		6.1665e+01		1.0000e+00
			7.5		5.9976e+01		1.0000e+00
			7.55		5.8287e+01		1.0000e+00
			7.6		5.6598e+01		1.0000e+00
			7.65		5.4909e+01		1.0000e+00
			7.7		4.9659e+01		1.0000e+00
			7.75		4.4410e+01		1.0000e+00
			7.8		3.9160e+01		1.0000e+00
			7.85		3.3911e+01		1.0000e+00
			7.9		2.8552e+01		1.0000e+00
			7.95		2.3193e+01		1.0000e+00
			8.0		1.7834e+01		1.0000e+00
			8.05		1.2476e+01		1.0000e+00
			8.1		1.1249e+01		1.0000e+00
			8.15		1.0023e+01		1.0000e+00
			8.2		8.7967e+00		1.0000e+00
			8.25		7.5705e+00		1.0000e+00
			8.3		7.2842e+00		1.0000e+00
			8.35		6.9979e+00		1.0000e+00
			8.4		6.7116e+00		1.0000e+00
			8.45		6.4253e+00		1.0000e+00
			8.5		6.1392e+00		1.0000e+00
			8.55		5.8530e+00		1.0000e+00
			8.6		5.5669e+00		1.0000e+00
			8.65		5.2808e+00		1.0000e+00
			8.7		5.1743e+00		1.0000e+00
			8.75		5.0679e+00		1.0000e+00
			8.8		4.9615e+00		1.0000e+00
			8.85		4.8551e+00		1.0000e+00
			8.9		4.7487e+00		1.0000e+00
			8.95		4.6424e+00		1.0000e+00
			9.0		4.5360e+00		1.0000e+00
			9.05		4.4297e+00		1.0000e+00
			9.1		4.3674e+00		1.0000e+00
			9.15		4.3051e+00		1.0000e+00
			9.2		4.2428e+00		1.0000e+00
			9.25		4.1805e+00		1.0000e+00
			9.3		4.1182e+00		1.0000e+00
			9.35		4.0559e+00		1.0000e+00
			9.4		3.9937e+00		1.0000e+00
			9.45		3.9314e+00		1.0000e+00
			9.5		3.8692e+00		1.0000e+00
			9.55		3.8070e+00		1.0000e+00
			9.6		3.7448e+00		1.0000e+00
			9.65		3.6826e+00		1.0000e+00
			9.7		3.6204e+00		1.0000e+00
			9.75		3.5582e+00		1.0000e+00
			9.8		3.4960e+00		1.0000e+00
			9.85		3.4338e+00		1.0000e+00
			9.9		3.3868e+00		1.0000e+00
			9.95		3.3397e+00		1.0000e+00
			10.0		3.2927e+00		1.0000e+00
			10.05		3.2456e+00		1.0000e+00
			10.1		3.1986e+00		1.0000e+00
			10.15		3.1516e+00		1.0000e+00
			10.2		3.1046e+00		1.0000e+00
			10.25		3.0576e+00		1.0000e+00
			10.3		3.0106e+00		1.0000e+00
			10.35		2.9636e+00		1.0000e+00
			10.4		2.9166e+00		1.0000e+00
			10.45		2.8696e+00		1.0000e+00
			10.5		2.8227e+00		1.0000e+00
			10.55		2.7757e+00		1.0000e+00
			10.6		2.7288e+00		1.0000e+00
			10.65		2.6818e+00		1.0000e+00
			10.7		2.6470e+00		1.0000e+00
			10.75		2.6122e+00		1.0000e+00
			10.8		2.5773e+00		1.0000e+00
			10.85		2.5425e+00		1.0000e+00
			10.9		2.5077e+00		1.0000e+00
			10.95		2.4729e+00		1.0000e+00
			11.0		2.4381e+00		1.0000e+00
			11.05		2.4033e+00		1.0000e+00
			11.1		2.3685e+00		1.0000e+00
			11.15		2.3337e+00		1.0000e+00
			11.2		2.2990e+00		1.0000e+00
			11.25		2.2642e+00		1.0000e+00
			11.3		2.2294e+00		1.0000e+00
			11.35		2.1947e+00		1.0000e+00
			11.4		2.1599e+00		1.0000e+00
			11.45		2.1252e+00		1.0000e+00
			11.5		2.0977e+00		1.0000e+00
			11.55		2.0701e+00		1.0000e+00
			11.6		2.0426e+00		1.0000e+00
			11.65		2.0151e+00		1.0000e+00
			11.7		1.9877e+00		1.0000e+00
			11.75		1.9602e+00		1.0000e+00
			11.8		1.9327e+00		1.0000e+00
			11.85		1.9052e+00		1.0000e+00
			11.9		1.8778e+00		1.0000e+00
			11.95		1.8503e+00		1.0000e+00
			12.0		1.8229e+00		1.0000e+00
			12.05		1.7954e+00		1.0000e+00
			12.1		1.7680e+00		1.0000e+00
			12.15		1.7405e+00		1.0000e+00
			12.2		1.7131e+00		1.0000e+00
			12.25		1.6856e+00		1.0000e+00
			12.3		1.6634e+00		1.0000e+00
			12.35		1.6411e+00		1.0000e+00
			12.4		1.6189e+00		1.0000e+00
			12.45		1.5966e+00		1.0000e+00
			12.5		1.5744e+00		1.0000e+00
			12.55		1.5521e+00		1.0000e+00
			12.6		1.5299e+00		1.0000e+00
			12.65		1.5077e+00		1.0000e+00
			12.7		1.4854e+00		1.0000e+00
			12.75		1.4632e+00		1.0000e+00
			12.8		1.4410e+00		1.0000e+00
			12.85		1.4188e+00		1.0000e+00
			12.9		1.3966e+00		1.0000e+00
			12.95		1.3744e+00		1.0000e+00
			13.0		1.3522e+00		1.0000e+00
			13.05		1.3300e+00		1.0000e+00
			13.1		1.3052e+00		1.0000e+00
			13.15		1.2805e+00		1.0000e+00
			13.2		1.2558e+00		1.0000e+00
			13.25		1.2311e+00		1.0000e+00
			13.3		1.2064e+00		1.0000e+00
			13.35		1.1817e+00		1.0000e+00
			13.4		1.1570e+00		1.0000e+00
			13.45		1.1323e+00		1.0000e+00
			13.5		1.1076e+00		1.0000e+00
			13.55		1.0829e+00		1.0000e+00
			13.6		1.0583e+00		1.0000e+00
			13.65		1.0336e+00		1.0000e+00
			13.7		1.0089e+00		1.0000e+00
			13.75		9.8427e-01		1.0000e+00
			13.8		9.5961e-01		1.0000e+00
			13.85		9.3496e-01		1.0000e+00
			13.9		9.2479e-01		1.0000e+00
			13.95		9.1462e-01		1.0000e+00
