BEGIN_SCAN_DATA
	FORMAT=CC-Export V1.9                  
	FILE_CREATION_DATE=
	LAST_MODIFIED=11-Jan-2023 11:56:47
	BEGIN_SCAN  1
		TASK_NAME=RayStation Phantom Profiles & PDDs
		PROGRAM=RayStation
		COMMENT=RayStation Script Export
		MEAS_DATE=11-Jan-2023 11:56:47
		LINAC=RayStation
		MODALITY=X
		ISOCENTER=1000.00
		INPLANE_AXIS=Y
		CROSSPLANE_AXIS=X
		DEPTH_AXIS=Z
		INPLANE_AXIS_DIR=GUN_TARGET
		CROSSPLANE_AXIS_DIR=LEFT_RIGHT
		DEPTH_AXIS_DIR=UP_DOWN
		ENERGY=6.3
		NOMINAL_DMAX=20.00
		SSD=1000.0
		SCD=1000.00
		WEDGE_ANGLE=0.00
		FIELD_INPLANE=150.0
		FIELD_CROSSPLANE=100.0
		FIELD_TYPE=IRREGULAR
		GANTRY=0.00
		GANTRY_UPRIGHT_POSITION=0
		GANTRY_ROTATION=CW
		COLL_ANGLE=0.00
		REF_FIELD_DEPTH=50.00
		REF_FIELD_DEFINED=ISOCENTER
		FIELD_INPLANE=150.0
		FIELD_CROSSPLANE=100.0
		SCAN_CURVETYPE=CROSSPLANE_PROFILE
		SCAN_DEPTH=100.0
		SCAN_OFFAXIS_INPLANE=0.00
		SCAN_OFFAXIS_CROSSPLANE=0.00
		SCAN_ANGLE=0.00
		SCAN_DIAGONAL=NOT_DIAGONAL
		SCAN_DIRECTION=NEGATIVE
		MEAS_MEDIUM=WATER
		MEAS_UNIT=cGy
		INCLINATION_ANGLE=0.00
		PRESSURE=1013.20
		TEMPERATURE=20.00
		NORM_TEMPERATURE=20.00
		CORRECTION_FACTOR=1.0000;
		BEGIN_DATA
			-30.05		5.7848e-05		1.0000e+00
			-30.0		8.6771e-05		1.0000e+00
			-29.95		1.1569e-04		1.0000e+00
			-29.9		1.1723e-04		1.0000e+00
			-29.85		1.1876e-04		1.0000e+00
			-29.8		1.2029e-04		1.0000e+00
			-29.75		1.2183e-04		1.0000e+00
			-29.7		1.2337e-04		1.0000e+00
			-29.65		1.2492e-04		1.0000e+00
			-29.6		1.2646e-04		1.0000e+00
			-29.55		1.2801e-04		1.0000e+00
			-29.5		1.3007e-04		1.0000e+00
			-29.45		1.3214e-04		1.0000e+00
			-29.4		1.3420e-04		1.0000e+00
			-29.35		1.3626e-04		1.0000e+00
			-29.3		1.3779e-04		1.0000e+00
			-29.25		1.3931e-04		1.0000e+00
			-29.2		1.4083e-04		1.0000e+00
			-29.15		1.4236e-04		1.0000e+00
			-29.1		1.4460e-04		1.0000e+00
			-29.05		1.4683e-04		1.0000e+00
			-29.0		1.4907e-04		1.0000e+00
			-28.95		1.5131e-04		1.0000e+00
			-28.9		1.5368e-04		1.0000e+00
			-28.85		1.5605e-04		1.0000e+00
			-28.8		1.5842e-04		1.0000e+00
			-28.75		1.6079e-04		1.0000e+00
			-28.7		1.7078e-04		1.0000e+00
			-28.65		1.8078e-04		1.0000e+00
			-28.6		1.9077e-04		1.0000e+00
			-28.55		2.0076e-04		1.0000e+00
			-28.5		2.1955e-04		1.0000e+00
			-28.45		2.3835e-04		1.0000e+00
			-28.4		2.5714e-04		1.0000e+00
			-28.35		2.7593e-04		1.0000e+00
			-28.3		2.9410e-04		1.0000e+00
			-28.25		3.1226e-04		1.0000e+00
			-28.2		3.3042e-04		1.0000e+00
			-28.15		3.4859e-04		1.0000e+00
			-28.1		3.6788e-04		1.0000e+00
			-28.05		3.8717e-04		1.0000e+00
			-28.0		4.0647e-04		1.0000e+00
			-27.95		4.2576e-04		1.0000e+00
			-27.9		4.4501e-04		1.0000e+00
			-27.85		4.6425e-04		1.0000e+00
			-27.8		4.8350e-04		1.0000e+00
			-27.75		5.0275e-04		1.0000e+00
			-27.7		5.2282e-04		1.0000e+00
			-27.65		5.4289e-04		1.0000e+00
			-27.6		5.6296e-04		1.0000e+00
			-27.55		5.8304e-04		1.0000e+00
			-27.5		6.1092e-04		1.0000e+00
			-27.45		6.3881e-04		1.0000e+00
			-27.4		6.6670e-04		1.0000e+00
			-27.35		6.9459e-04		1.0000e+00
			-27.3		7.2209e-04		1.0000e+00
			-27.25		7.4959e-04		1.0000e+00
			-27.2		7.7709e-04		1.0000e+00
			-27.15		8.0459e-04		1.0000e+00
			-27.1		8.3378e-04		1.0000e+00
			-27.05		8.6297e-04		1.0000e+00
			-27.0		8.9216e-04		1.0000e+00
			-26.95		9.2135e-04		1.0000e+00
			-26.9		9.5109e-04		1.0000e+00
			-26.85		9.8082e-04		1.0000e+00
			-26.8		1.0106e-03		1.0000e+00
			-26.75		1.0403e-03		1.0000e+00
			-26.7		1.0682e-03		1.0000e+00
			-26.65		1.0962e-03		1.0000e+00
			-26.6		1.1242e-03		1.0000e+00
			-26.55		1.1521e-03		1.0000e+00
			-26.5		1.1732e-03		1.0000e+00
			-26.45		1.1942e-03		1.0000e+00
			-26.4		1.2153e-03		1.0000e+00
			-26.35		1.2363e-03		1.0000e+00
			-26.3		1.2439e-03		1.0000e+00
			-26.25		1.2514e-03		1.0000e+00
			-26.2		1.2590e-03		1.0000e+00
			-26.15		1.2666e-03		1.0000e+00
			-26.1		1.2760e-03		1.0000e+00
			-26.05		1.2855e-03		1.0000e+00
			-26.0		1.2950e-03		1.0000e+00
			-25.95		1.3045e-03		1.0000e+00
			-25.9		1.3158e-03		1.0000e+00
			-25.85		1.3271e-03		1.0000e+00
			-25.8		1.3384e-03		1.0000e+00
			-25.75		1.3497e-03		1.0000e+00
			-25.7		1.3577e-03		1.0000e+00
			-25.65		1.3656e-03		1.0000e+00
			-25.6		1.3736e-03		1.0000e+00
			-25.55		1.3816e-03		1.0000e+00
			-25.5		1.3972e-03		1.0000e+00
			-25.45		1.4128e-03		1.0000e+00
			-25.4		1.4283e-03		1.0000e+00
			-25.35		1.4439e-03		1.0000e+00
			-25.3		1.4534e-03		1.0000e+00
			-25.25		1.4629e-03		1.0000e+00
			-25.2		1.4723e-03		1.0000e+00
			-25.15		1.4818e-03		1.0000e+00
			-25.1		1.4940e-03		1.0000e+00
			-25.05		1.5062e-03		1.0000e+00
			-25.0		1.5185e-03		1.0000e+00
			-24.95		1.5307e-03		1.0000e+00
			-24.9		1.5487e-03		1.0000e+00
			-24.85		1.5666e-03		1.0000e+00
			-24.8		1.5846e-03		1.0000e+00
			-24.75		1.6026e-03		1.0000e+00
			-24.7		1.6127e-03		1.0000e+00
			-24.65		1.6227e-03		1.0000e+00
			-24.6		1.6328e-03		1.0000e+00
			-24.55		1.6429e-03		1.0000e+00
			-24.5		1.6678e-03		1.0000e+00
			-24.45		1.6928e-03		1.0000e+00
			-24.4		1.7178e-03		1.0000e+00
			-24.35		1.7427e-03		1.0000e+00
			-24.3		1.7604e-03		1.0000e+00
			-24.25		1.7781e-03		1.0000e+00
			-24.2		1.7958e-03		1.0000e+00
			-24.15		1.8135e-03		1.0000e+00
			-24.1		1.8346e-03		1.0000e+00
			-24.05		1.8556e-03		1.0000e+00
			-24.0		1.8767e-03		1.0000e+00
			-23.95		1.8978e-03		1.0000e+00
			-23.9		1.9349e-03		1.0000e+00
			-23.85		1.9720e-03		1.0000e+00
			-23.8		2.0092e-03		1.0000e+00
			-23.75		2.0463e-03		1.0000e+00
			-23.7		2.0663e-03		1.0000e+00
			-23.65		2.0863e-03		1.0000e+00
			-23.6		2.1064e-03		1.0000e+00
			-23.55		2.1264e-03		1.0000e+00
			-23.5		2.1760e-03		1.0000e+00
			-23.45		2.2255e-03		1.0000e+00
			-23.4		2.2751e-03		1.0000e+00
			-23.35		2.3247e-03		1.0000e+00
			-23.3		2.3634e-03		1.0000e+00
			-23.25		2.4022e-03		1.0000e+00
			-23.2		2.4409e-03		1.0000e+00
			-23.15		2.4797e-03		1.0000e+00
			-23.1		2.5182e-03		1.0000e+00
			-23.05		2.5568e-03		1.0000e+00
			-23.0		2.5954e-03		1.0000e+00
			-22.95		2.6340e-03		1.0000e+00
			-22.9		2.7134e-03		1.0000e+00
			-22.85		2.7928e-03		1.0000e+00
			-22.8		2.8723e-03		1.0000e+00
			-22.75		2.9517e-03		1.0000e+00
			-22.7		2.9926e-03		1.0000e+00
			-22.65		3.0334e-03		1.0000e+00
			-22.6		3.0742e-03		1.0000e+00
			-22.55		3.1151e-03		1.0000e+00
			-22.5		3.2133e-03		1.0000e+00
			-22.45		3.3114e-03		1.0000e+00
			-22.4		3.4096e-03		1.0000e+00
			-22.35		3.5077e-03		1.0000e+00
			-22.3		3.5956e-03		1.0000e+00
			-22.25		3.6835e-03		1.0000e+00
			-22.2		3.7714e-03		1.0000e+00
			-22.15		3.8592e-03		1.0000e+00
			-22.1		3.9332e-03		1.0000e+00
			-22.05		4.0072e-03		1.0000e+00
			-22.0		4.0812e-03		1.0000e+00
			-21.95		4.1552e-03		1.0000e+00
			-21.9		4.3284e-03		1.0000e+00
			-21.85		4.5016e-03		1.0000e+00
			-21.8		4.6748e-03		1.0000e+00
			-21.75		4.8479e-03		1.0000e+00
			-21.7		4.9354e-03		1.0000e+00
			-21.65		5.0228e-03		1.0000e+00
			-21.6		5.1102e-03		1.0000e+00
			-21.55		5.1977e-03		1.0000e+00
			-21.5		5.3914e-03		1.0000e+00
			-21.45		5.5851e-03		1.0000e+00
			-21.4		5.7788e-03		1.0000e+00
			-21.35		5.9725e-03		1.0000e+00
			-21.3		6.1730e-03		1.0000e+00
			-21.25		6.3735e-03		1.0000e+00
			-21.2		6.5740e-03		1.0000e+00
			-21.15		6.7745e-03		1.0000e+00
			-21.1		6.9196e-03		1.0000e+00
			-21.05		7.0647e-03		1.0000e+00
			-21.0		7.2098e-03		1.0000e+00
			-20.95		7.3549e-03		1.0000e+00
			-20.9		7.7348e-03		1.0000e+00
			-20.85		8.1147e-03		1.0000e+00
			-20.8		8.4945e-03		1.0000e+00
			-20.75		8.8744e-03		1.0000e+00
			-20.7		9.0712e-03		1.0000e+00
			-20.65		9.2679e-03		1.0000e+00
			-20.6		9.4647e-03		1.0000e+00
			-20.55		9.6615e-03		1.0000e+00
			-20.5		1.0048e-02		1.0000e+00
			-20.45		1.0434e-02		1.0000e+00
			-20.4		1.0820e-02		1.0000e+00
			-20.35		1.1206e-02		1.0000e+00
			-20.3		1.1668e-02		1.0000e+00
			-20.25		1.2130e-02		1.0000e+00
			-20.2		1.2592e-02		1.0000e+00
			-20.15		1.3054e-02		1.0000e+00
			-20.1		1.3343e-02		1.0000e+00
			-20.05		1.3631e-02		1.0000e+00
			-20.0		1.3919e-02		1.0000e+00
			-19.95		1.4208e-02		1.0000e+00
			-19.9		1.5007e-02		1.0000e+00
			-19.85		1.5805e-02		1.0000e+00
			-19.8		1.6604e-02		1.0000e+00
			-19.75		1.7403e-02		1.0000e+00
			-19.7		1.7832e-02		1.0000e+00
			-19.65		1.8261e-02		1.0000e+00
			-19.6		1.8690e-02		1.0000e+00
			-19.55		1.9119e-02		1.0000e+00
			-19.5		1.9856e-02		1.0000e+00
			-19.45		2.0593e-02		1.0000e+00
			-19.4		2.1329e-02		1.0000e+00
			-19.35		2.2066e-02		1.0000e+00
			-19.3		2.3058e-02		1.0000e+00
			-19.25		2.4050e-02		1.0000e+00
			-19.2		2.5042e-02		1.0000e+00
			-19.15		2.6034e-02		1.0000e+00
			-19.1		2.6592e-02		1.0000e+00
			-19.05		2.7150e-02		1.0000e+00
			-19.0		2.7708e-02		1.0000e+00
			-18.95		2.8266e-02		1.0000e+00
			-18.9		2.9839e-02		1.0000e+00
			-18.85		3.1413e-02		1.0000e+00
			-18.8		3.2986e-02		1.0000e+00
			-18.75		3.4559e-02		1.0000e+00
			-18.7		3.5471e-02		1.0000e+00
			-18.65		3.6384e-02		1.0000e+00
			-18.6		3.7296e-02		1.0000e+00
			-18.55		3.8208e-02		1.0000e+00
			-18.5		3.9521e-02		1.0000e+00
			-18.45		4.0834e-02		1.0000e+00
			-18.4		4.2147e-02		1.0000e+00
			-18.35		4.3469e-02		1.0000e+00
			-18.3		1.3977e-01		1.0000e+00
			-18.25		2.3608e-01		1.0000e+00
			-18.2		3.3239e-01		1.0000e+00
			-18.15		4.2868e-01		1.0000e+00
			-18.1		4.4055e-01		1.0000e+00
			-18.05		4.5243e-01		1.0000e+00
			-18.0		4.6430e-01		1.0000e+00
			-17.95		4.7617e-01		1.0000e+00
			-17.9		4.8805e-01		1.0000e+00
			-17.85		4.9994e-01		1.0000e+00
			-17.8		5.1182e-01		1.0000e+00
			-17.75		5.2371e-01		1.0000e+00
			-17.7		5.3560e-01		1.0000e+00
			-17.65		5.4750e-01		1.0000e+00
			-17.6		5.5940e-01		1.0000e+00
			-17.55		5.7130e-01		1.0000e+00
			-17.5		5.8320e-01		1.0000e+00
			-17.45		5.9511e-01		1.0000e+00
			-17.4		6.0702e-01		1.0000e+00
			-17.35		6.1893e-01		1.0000e+00
			-17.3		6.2442e-01		1.0000e+00
			-17.25		6.2990e-01		1.0000e+00
			-17.2		6.3538e-01		1.0000e+00
			-17.15		6.4086e-01		1.0000e+00
			-17.1		6.4635e-01		1.0000e+00
			-17.05		6.5184e-01		1.0000e+00
			-17.0		6.5732e-01		1.0000e+00
			-16.95		6.6281e-01		1.0000e+00
			-16.9		6.6830e-01		1.0000e+00
			-16.85		6.7379e-01		1.0000e+00
			-16.8		6.7929e-01		1.0000e+00
			-16.75		6.8478e-01		1.0000e+00
			-16.7		6.9027e-01		1.0000e+00
			-16.65		6.9577e-01		1.0000e+00
			-16.6		7.0127e-01		1.0000e+00
			-16.55		7.0677e-01		1.0000e+00
			-16.5		7.1367e-01		1.0000e+00
			-16.45		7.2057e-01		1.0000e+00
			-16.4		7.2747e-01		1.0000e+00
			-16.35		7.3437e-01		1.0000e+00
			-16.3		7.4128e-01		1.0000e+00
			-16.25		7.4818e-01		1.0000e+00
			-16.2		7.5509e-01		1.0000e+00
			-16.15		7.6200e-01		1.0000e+00
			-16.1		7.6891e-01		1.0000e+00
			-16.05		7.7582e-01		1.0000e+00
			-16.0		7.8274e-01		1.0000e+00
			-15.95		7.8965e-01		1.0000e+00
			-15.9		7.9657e-01		1.0000e+00
			-15.85		8.0349e-01		1.0000e+00
			-15.8		8.1041e-01		1.0000e+00
			-15.75		8.1733e-01		1.0000e+00
			-15.7		8.2685e-01		1.0000e+00
			-15.65		8.3637e-01		1.0000e+00
			-15.6		8.4589e-01		1.0000e+00
			-15.55		8.5542e-01		1.0000e+00
			-15.5		8.6495e-01		1.0000e+00
			-15.45		8.7448e-01		1.0000e+00
			-15.4		8.8401e-01		1.0000e+00
			-15.35		8.9354e-01		1.0000e+00
			-15.3		9.0308e-01		1.0000e+00
			-15.25		9.1262e-01		1.0000e+00
			-15.2		9.2216e-01		1.0000e+00
			-15.15		9.3170e-01		1.0000e+00
			-15.1		9.4124e-01		1.0000e+00
			-15.05		9.5079e-01		1.0000e+00
			-15.0		9.6033e-01		1.0000e+00
			-14.95		9.6988e-01		1.0000e+00
			-14.9		9.8220e-01		1.0000e+00
			-14.85		9.9452e-01		1.0000e+00
			-14.8		1.0068e+00		1.0000e+00
			-14.75		1.0192e+00		1.0000e+00
			-14.7		1.0315e+00		1.0000e+00
			-14.65		1.0438e+00		1.0000e+00
			-14.6		1.0562e+00		1.0000e+00
			-14.55		1.0685e+00		1.0000e+00
			-14.5		1.0809e+00		1.0000e+00
			-14.45		1.0932e+00		1.0000e+00
			-14.4		1.1055e+00		1.0000e+00
			-14.35		1.1179e+00		1.0000e+00
			-14.3		1.1302e+00		1.0000e+00
			-14.25		1.1426e+00		1.0000e+00
			-14.2		1.1549e+00		1.0000e+00
			-14.15		1.1673e+00		1.0000e+00
			-14.1		1.1822e+00		1.0000e+00
			-14.05		1.1971e+00		1.0000e+00
			-14.0		1.2119e+00		1.0000e+00
			-13.95		1.2268e+00		1.0000e+00
			-13.9		1.2417e+00		1.0000e+00
			-13.85		1.2566e+00		1.0000e+00
			-13.8		1.2715e+00		1.0000e+00
			-13.75		1.2864e+00		1.0000e+00
			-13.7		1.3013e+00		1.0000e+00
			-13.65		1.3162e+00		1.0000e+00
			-13.6		1.3311e+00		1.0000e+00
			-13.55		1.3461e+00		1.0000e+00
			-13.5		1.3610e+00		1.0000e+00
			-13.45		1.3759e+00		1.0000e+00
			-13.4		1.3908e+00		1.0000e+00
			-13.35		1.4057e+00		1.0000e+00
			-13.3		1.4414e+00		1.0000e+00
			-13.25		1.4771e+00		1.0000e+00
			-13.2		1.5128e+00		1.0000e+00
			-13.15		1.5484e+00		1.0000e+00
			-13.1		1.5841e+00		1.0000e+00
			-13.05		1.6198e+00		1.0000e+00
			-13.0		1.6555e+00		1.0000e+00
			-12.95		1.6912e+00		1.0000e+00
			-12.9		1.7270e+00		1.0000e+00
			-12.85		1.7627e+00		1.0000e+00
			-12.8		1.7984e+00		1.0000e+00
			-12.75		1.8342e+00		1.0000e+00
			-12.7		1.8699e+00		1.0000e+00
			-12.65		1.9057e+00		1.0000e+00
			-12.6		1.9415e+00		1.0000e+00
			-12.55		1.9772e+00		1.0000e+00
			-12.5		2.0047e+00		1.0000e+00
			-12.45		2.0323e+00		1.0000e+00
			-12.4		2.0598e+00		1.0000e+00
			-12.35		2.0873e+00		1.0000e+00
			-12.3		2.1149e+00		1.0000e+00
			-12.25		2.1424e+00		1.0000e+00
			-12.2		2.1700e+00		1.0000e+00
			-12.15		2.1975e+00		1.0000e+00
			-12.1		2.2251e+00		1.0000e+00
			-12.05		2.2527e+00		1.0000e+00
			-12.0		2.2802e+00		1.0000e+00
			-11.95		2.3078e+00		1.0000e+00
			-11.9		2.3354e+00		1.0000e+00
			-11.85		2.3630e+00		1.0000e+00
			-11.8		2.3906e+00		1.0000e+00
			-11.75		2.4182e+00		1.0000e+00
			-11.7		2.4557e+00		1.0000e+00
			-11.65		2.4932e+00		1.0000e+00
			-11.6		2.5307e+00		1.0000e+00
			-11.55		2.5682e+00		1.0000e+00
			-11.5		2.6058e+00		1.0000e+00
			-11.45		2.6433e+00		1.0000e+00
			-11.4		2.6808e+00		1.0000e+00
			-11.35		2.7184e+00		1.0000e+00
			-11.3		2.7559e+00		1.0000e+00
			-11.25		2.7935e+00		1.0000e+00
			-11.2		2.8310e+00		1.0000e+00
			-11.15		2.8686e+00		1.0000e+00
			-11.1		2.9062e+00		1.0000e+00
			-11.05		2.9438e+00		1.0000e+00
			-11.0		2.9813e+00		1.0000e+00
			-10.95		3.0189e+00		1.0000e+00
			-10.9		3.0723e+00		1.0000e+00
			-10.85		3.1256e+00		1.0000e+00
			-10.8		3.1789e+00		1.0000e+00
			-10.75		3.2322e+00		1.0000e+00
			-10.7		3.2856e+00		1.0000e+00
			-10.65		3.3389e+00		1.0000e+00
			-10.6		3.3923e+00		1.0000e+00
			-10.55		3.4456e+00		1.0000e+00
			-10.5		3.4990e+00		1.0000e+00
			-10.45		3.5524e+00		1.0000e+00
			-10.4		3.6058e+00		1.0000e+00
			-10.35		3.6591e+00		1.0000e+00
			-10.3		3.7125e+00		1.0000e+00
			-10.25		3.7660e+00		1.0000e+00
			-10.2		3.8194e+00		1.0000e+00
			-10.15		3.8728e+00		1.0000e+00
			-10.1		3.9376e+00		1.0000e+00
			-10.05		4.0024e+00		1.0000e+00
			-10.0		4.0672e+00		1.0000e+00
			-9.95		4.1321e+00		1.0000e+00
			-9.9		4.1969e+00		1.0000e+00
			-9.85		4.2618e+00		1.0000e+00
			-9.8		4.3266e+00		1.0000e+00
			-9.75		4.3915e+00		1.0000e+00
			-9.7		4.4560e+00		1.0000e+00
			-9.65		4.5206e+00		1.0000e+00
			-9.6		4.5851e+00		1.0000e+00
			-9.55		4.6497e+00		1.0000e+00
			-9.5		4.7143e+00		1.0000e+00
			-9.45		4.7788e+00		1.0000e+00
			-9.4		4.8434e+00		1.0000e+00
			-9.35		4.9080e+00		1.0000e+00
			-9.3		5.0416e+00		1.0000e+00
			-9.25		5.1752e+00		1.0000e+00
			-9.2		5.3088e+00		1.0000e+00
			-9.15		5.4424e+00		1.0000e+00
			-9.1		5.5759e+00		1.0000e+00
			-9.05		5.7094e+00		1.0000e+00
			-9.0		5.8429e+00		1.0000e+00
			-8.95		5.9765e+00		1.0000e+00
			-8.9		6.2701e+00		1.0000e+00
			-8.85		6.5637e+00		1.0000e+00
			-8.8		6.8574e+00		1.0000e+00
			-8.75		7.1511e+00		1.0000e+00
			-8.7		7.9774e+00		1.0000e+00
			-8.65		8.8038e+00		1.0000e+00
			-8.6		9.6302e+00		1.0000e+00
			-8.55		1.0457e+01		1.0000e+00
			-8.5		1.3814e+01		1.0000e+00
			-8.45		1.7172e+01		1.0000e+00
			-8.4		2.0530e+01		1.0000e+00
			-8.35		2.3888e+01		1.0000e+00
			-8.3		2.7882e+01		1.0000e+00
			-8.25		3.1876e+01		1.0000e+00
			-8.2		3.5870e+01		1.0000e+00
			-8.15		3.9864e+01		1.0000e+00
			-8.1		4.1327e+01		1.0000e+00
			-8.05		4.2790e+01		1.0000e+00
			-8.0		4.4253e+01		1.0000e+00
			-7.95		4.5716e+01		1.0000e+00
			-7.9		4.6184e+01		1.0000e+00
			-7.85		4.6651e+01		1.0000e+00
			-7.8		4.7119e+01		1.0000e+00
			-7.75		4.7587e+01		1.0000e+00
			-7.7		4.7829e+01		1.0000e+00
			-7.65		4.8070e+01		1.0000e+00
			-7.6		4.8311e+01		1.0000e+00
			-7.55		4.8553e+01		1.0000e+00
			-7.5		4.8707e+01		1.0000e+00
			-7.45		4.8862e+01		1.0000e+00
			-7.4		4.9017e+01		1.0000e+00
			-7.35		4.9172e+01		1.0000e+00
			-7.3		4.9276e+01		1.0000e+00
			-7.25		4.9380e+01		1.0000e+00
			-7.2		4.9485e+01		1.0000e+00
			-7.15		4.9589e+01		1.0000e+00
			-7.1		4.9698e+01		1.0000e+00
			-7.05		4.9806e+01		1.0000e+00
			-7.0		4.9915e+01		1.0000e+00
			-6.95		5.0023e+01		1.0000e+00
			-6.9		5.0086e+01		1.0000e+00
			-6.85		5.0148e+01		1.0000e+00
			-6.8		5.0211e+01		1.0000e+00
			-6.75		5.0274e+01		1.0000e+00
			-6.7		5.0336e+01		1.0000e+00
			-6.65		5.0399e+01		1.0000e+00
			-6.6		5.0461e+01		1.0000e+00
			-6.55		5.0524e+01		1.0000e+00
			-6.5		5.0586e+01		1.0000e+00
			-6.45		5.0648e+01		1.0000e+00
			-6.4		5.0711e+01		1.0000e+00
			-6.35		5.0773e+01		1.0000e+00
			-6.3		5.0836e+01		1.0000e+00
			-6.25		5.0898e+01		1.0000e+00
			-6.2		5.0960e+01		1.0000e+00
			-6.15		5.1023e+01		1.0000e+00
			-6.1		5.1063e+01		1.0000e+00
			-6.05		5.1102e+01		1.0000e+00
			-6.0		5.1142e+01		1.0000e+00
			-5.95		5.1182e+01		1.0000e+00
			-5.9		5.1221e+01		1.0000e+00
			-5.85		5.1261e+01		1.0000e+00
			-5.8		5.1300e+01		1.0000e+00
			-5.75		5.1340e+01		1.0000e+00
			-5.7		5.1380e+01		1.0000e+00
			-5.65		5.1419e+01		1.0000e+00
			-5.6		5.1459e+01		1.0000e+00
			-5.55		5.1498e+01		1.0000e+00
			-5.5		5.1538e+01		1.0000e+00
			-5.45		5.1577e+01		1.0000e+00
			-5.4		5.1617e+01		1.0000e+00
			-5.35		5.1656e+01		1.0000e+00
			-5.3		5.1687e+01		1.0000e+00
			-5.25		5.1717e+01		1.0000e+00
			-5.2		5.1748e+01		1.0000e+00
			-5.15		5.1779e+01		1.0000e+00
			-5.1		5.1809e+01		1.0000e+00
			-5.05		5.1840e+01		1.0000e+00
			-5.0		5.1870e+01		1.0000e+00
			-4.95		5.1901e+01		1.0000e+00
			-4.9		5.1931e+01		1.0000e+00
			-4.85		5.1962e+01		1.0000e+00
			-4.8		5.1992e+01		1.0000e+00
			-4.75		5.2023e+01		1.0000e+00
			-4.7		5.2053e+01		1.0000e+00
			-4.65		5.2083e+01		1.0000e+00
			-4.6		5.2114e+01		1.0000e+00
			-4.55		5.2144e+01		1.0000e+00
			-4.5		5.2160e+01		1.0000e+00
			-4.45		5.2175e+01		1.0000e+00
			-4.4		5.2190e+01		1.0000e+00
			-4.35		5.2206e+01		1.0000e+00
			-4.3		5.2221e+01		1.0000e+00
			-4.25		5.2236e+01		1.0000e+00
			-4.2		5.2251e+01		1.0000e+00
			-4.15		5.2266e+01		1.0000e+00
			-4.1		5.2282e+01		1.0000e+00
			-4.05		5.2297e+01		1.0000e+00
			-4.0		5.2312e+01		1.0000e+00
			-3.95		5.2327e+01		1.0000e+00
			-3.9		5.2342e+01		1.0000e+00
			-3.85		5.2357e+01		1.0000e+00
			-3.8		5.2372e+01		1.0000e+00
			-3.75		5.2387e+01		1.0000e+00
			-3.7		5.2397e+01		1.0000e+00
			-3.65		5.2406e+01		1.0000e+00
			-3.6		5.2415e+01		1.0000e+00
			-3.55		5.2424e+01		1.0000e+00
			-3.5		5.2433e+01		1.0000e+00
			-3.45		5.2443e+01		1.0000e+00
			-3.4		5.2452e+01		1.0000e+00
			-3.35		5.2461e+01		1.0000e+00
			-3.3		5.2470e+01		1.0000e+00
			-3.25		5.2479e+01		1.0000e+00
			-3.2		5.2488e+01		1.0000e+00
			-3.15		5.2497e+01		1.0000e+00
			-3.1		5.2506e+01		1.0000e+00
			-3.05		5.2515e+01		1.0000e+00
			-3.0		5.2524e+01		1.0000e+00
			-2.95		5.2533e+01		1.0000e+00
			-2.9		5.2538e+01		1.0000e+00
			-2.85		5.2544e+01		1.0000e+00
			-2.8		5.2549e+01		1.0000e+00
			-2.75		5.2554e+01		1.0000e+00
			-2.7		5.2560e+01		1.0000e+00
			-2.65		5.2565e+01		1.0000e+00
			-2.6		5.2570e+01		1.0000e+00
			-2.55		5.2575e+01		1.0000e+00
			-2.5		5.2580e+01		1.0000e+00
			-2.45		5.2586e+01		1.0000e+00
			-2.4		5.2591e+01		1.0000e+00
			-2.35		5.2596e+01		1.0000e+00
			-2.3		5.2601e+01		1.0000e+00
			-2.25		5.2606e+01		1.0000e+00
			-2.2		5.2611e+01		1.0000e+00
			-2.15		5.2616e+01		1.0000e+00
			-2.1		5.2618e+01		1.0000e+00
			-2.05		5.2620e+01		1.0000e+00
			-2.0		5.2622e+01		1.0000e+00
			-1.95		5.2624e+01		1.0000e+00
			-1.9		5.2626e+01		1.0000e+00
			-1.85		5.2627e+01		1.0000e+00
			-1.8		5.2629e+01		1.0000e+00
			-1.75		5.2631e+01		1.0000e+00
			-1.7		5.2633e+01		1.0000e+00
			-1.65		5.2634e+01		1.0000e+00
			-1.6		5.2636e+01		1.0000e+00
			-1.55		5.2638e+01		1.0000e+00
			-1.5		5.2640e+01		1.0000e+00
			-1.45		5.2641e+01		1.0000e+00
			-1.4		5.2643e+01		1.0000e+00
			-1.35		5.2644e+01		1.0000e+00
			-1.3		5.2641e+01		1.0000e+00
			-1.25		5.2637e+01		1.0000e+00
			-1.2		5.2633e+01		1.0000e+00
			-1.15		5.2630e+01		1.0000e+00
			-1.1		5.2626e+01		1.0000e+00
			-1.05		5.2622e+01		1.0000e+00
			-1.0		5.2618e+01		1.0000e+00
			-0.95		5.2614e+01		1.0000e+00
			-0.9		5.2610e+01		1.0000e+00
			-0.85		5.2607e+01		1.0000e+00
			-0.8		5.2603e+01		1.0000e+00
			-0.75		5.2599e+01		1.0000e+00
			-0.7		5.2595e+01		1.0000e+00
			-0.65		5.2591e+01		1.0000e+00
			-0.6		5.2587e+01		1.0000e+00
			-0.55		5.2583e+01		1.0000e+00
			-0.5		5.2583e+01		1.0000e+00
			-0.45		5.2582e+01		1.0000e+00
			-0.4		5.2582e+01		1.0000e+00
			-0.35		5.2582e+01		1.0000e+00
			-0.3		5.2581e+01		1.0000e+00
			-0.25		5.2581e+01		1.0000e+00
			-0.2		5.2581e+01		1.0000e+00
			-0.15		5.2580e+01		1.0000e+00
			-0.1		5.2580e+01		1.0000e+00
			-0.05		5.2579e+01		1.0000e+00
			0.0		5.2579e+01		1.0000e+00
			0.05		5.2578e+01		1.0000e+00
			0.1		5.2578e+01		1.0000e+00
			0.15		5.2577e+01		1.0000e+00
			0.2		5.2577e+01		1.0000e+00
			0.25		5.2576e+01		1.0000e+00
			0.3		5.2579e+01		1.0000e+00
			0.35		5.2581e+01		1.0000e+00
			0.4		5.2583e+01		1.0000e+00
			0.45		5.2586e+01		1.0000e+00
			0.5		5.2588e+01		1.0000e+00
			0.55		5.2590e+01		1.0000e+00
			0.6		5.2593e+01		1.0000e+00
			0.65		5.2595e+01		1.0000e+00
			0.7		5.2597e+01		1.0000e+00
			0.75		5.2599e+01		1.0000e+00
			0.8		5.2602e+01		1.0000e+00
			0.85		5.2604e+01		1.0000e+00
			0.9		5.2606e+01		1.0000e+00
			0.95		5.2608e+01		1.0000e+00
			1.0		5.2610e+01		1.0000e+00
			1.05		5.2612e+01		1.0000e+00
			1.1		5.2614e+01		1.0000e+00
			1.15		5.2615e+01		1.0000e+00
			1.2		5.2617e+01		1.0000e+00
			1.25		5.2618e+01		1.0000e+00
			1.3		5.2620e+01		1.0000e+00
			1.35		5.2621e+01		1.0000e+00
			1.4		5.2622e+01		1.0000e+00
			1.45		5.2624e+01		1.0000e+00
			1.5		5.2625e+01		1.0000e+00
			1.55		5.2626e+01		1.0000e+00
			1.6		5.2628e+01		1.0000e+00
			1.65		5.2629e+01		1.0000e+00
			1.7		5.2630e+01		1.0000e+00
			1.75		5.2631e+01		1.0000e+00
			1.8		5.2632e+01		1.0000e+00
			1.85		5.2634e+01		1.0000e+00
			1.9		5.2629e+01		1.0000e+00
			1.95		5.2625e+01		1.0000e+00
			2.0		5.2621e+01		1.0000e+00
			2.05		5.2617e+01		1.0000e+00
			2.1		5.2612e+01		1.0000e+00
			2.15		5.2608e+01		1.0000e+00
			2.2		5.2604e+01		1.0000e+00
			2.25		5.2599e+01		1.0000e+00
			2.3		5.2595e+01		1.0000e+00
			2.35		5.2590e+01		1.0000e+00
			2.4		5.2586e+01		1.0000e+00
			2.45		5.2581e+01		1.0000e+00
			2.5		5.2577e+01		1.0000e+00
			2.55		5.2572e+01		1.0000e+00
			2.6		5.2568e+01		1.0000e+00
			2.65		5.2563e+01		1.0000e+00
			2.7		5.2555e+01		1.0000e+00
			2.75		5.2547e+01		1.0000e+00
			2.8		5.2539e+01		1.0000e+00
			2.85		5.2531e+01		1.0000e+00
			2.9		5.2523e+01		1.0000e+00
			2.95		5.2515e+01		1.0000e+00
			3.0		5.2507e+01		1.0000e+00
			3.05		5.2499e+01		1.0000e+00
			3.1		5.2490e+01		1.0000e+00
			3.15		5.2482e+01		1.0000e+00
			3.2		5.2474e+01		1.0000e+00
			3.25		5.2466e+01		1.0000e+00
			3.3		5.2457e+01		1.0000e+00
			3.35		5.2449e+01		1.0000e+00
			3.4		5.2441e+01		1.0000e+00
			3.45		5.2433e+01		1.0000e+00
			3.5		5.2419e+01		1.0000e+00
			3.55		5.2406e+01		1.0000e+00
			3.6		5.2393e+01		1.0000e+00
			3.65		5.2379e+01		1.0000e+00
			3.7		5.2366e+01		1.0000e+00
			3.75		5.2352e+01		1.0000e+00
			3.8		5.2339e+01		1.0000e+00
			3.85		5.2326e+01		1.0000e+00
			3.9		5.2312e+01		1.0000e+00
			3.95		5.2299e+01		1.0000e+00
			4.0		5.2285e+01		1.0000e+00
			4.05		5.2272e+01		1.0000e+00
			4.1		5.2258e+01		1.0000e+00
			4.15		5.2244e+01		1.0000e+00
			4.2		5.2231e+01		1.0000e+00
			4.25		5.2217e+01		1.0000e+00
			4.3		5.2191e+01		1.0000e+00
			4.35		5.2165e+01		1.0000e+00
			4.4		5.2139e+01		1.0000e+00
			4.45		5.2113e+01		1.0000e+00
			4.5		5.2087e+01		1.0000e+00
			4.55		5.2061e+01		1.0000e+00
			4.6		5.2035e+01		1.0000e+00
			4.65		5.2009e+01		1.0000e+00
			4.7		5.1982e+01		1.0000e+00
			4.75		5.1956e+01		1.0000e+00
			4.8		5.1930e+01		1.0000e+00
			4.85		5.1904e+01		1.0000e+00
			4.9		5.1878e+01		1.0000e+00
			4.95		5.1851e+01		1.0000e+00
			5.0		5.1825e+01		1.0000e+00
			5.05		5.1799e+01		1.0000e+00
			5.1		5.1761e+01		1.0000e+00
			5.15		5.1722e+01		1.0000e+00
			5.2		5.1684e+01		1.0000e+00
			5.25		5.1646e+01		1.0000e+00
			5.3		5.1607e+01		1.0000e+00
			5.35		5.1569e+01		1.0000e+00
			5.4		5.1531e+01		1.0000e+00
			5.45		5.1492e+01		1.0000e+00
			5.5		5.1454e+01		1.0000e+00
			5.55		5.1415e+01		1.0000e+00
			5.6		5.1377e+01		1.0000e+00
			5.65		5.1338e+01		1.0000e+00
			5.7		5.1300e+01		1.0000e+00
			5.75		5.1261e+01		1.0000e+00
			5.8		5.1223e+01		1.0000e+00
			5.85		5.1184e+01		1.0000e+00
			5.9		5.1130e+01		1.0000e+00
			5.95		5.1076e+01		1.0000e+00
			6.0		5.1022e+01		1.0000e+00
			6.05		5.0968e+01		1.0000e+00
			6.1		5.0914e+01		1.0000e+00
			6.15		5.0860e+01		1.0000e+00
			6.2		5.0805e+01		1.0000e+00
			6.25		5.0751e+01		1.0000e+00
			6.3		5.0697e+01		1.0000e+00
			6.35		5.0643e+01		1.0000e+00
			6.4		5.0588e+01		1.0000e+00
			6.45		5.0534e+01		1.0000e+00
			6.5		5.0480e+01		1.0000e+00
			6.55		5.0426e+01		1.0000e+00
			6.6		5.0371e+01		1.0000e+00
			6.65		5.0317e+01		1.0000e+00
			6.7		5.0206e+01		1.0000e+00
			6.75		5.0095e+01		1.0000e+00
			6.8		4.9983e+01		1.0000e+00
			6.85		4.9872e+01		1.0000e+00
			6.9		4.9761e+01		1.0000e+00
			6.95		4.9649e+01		1.0000e+00
			7.0		4.9538e+01		1.0000e+00
			7.05		4.9427e+01		1.0000e+00
			7.1		4.9364e+01		1.0000e+00
			7.15		4.9300e+01		1.0000e+00
			7.2		4.9237e+01		1.0000e+00
			7.25		4.9173e+01		1.0000e+00
			7.3		4.9017e+01		1.0000e+00
			7.35		4.8861e+01		1.0000e+00
			7.4		4.8705e+01		1.0000e+00
			7.45		4.8549e+01		1.0000e+00
			7.5		4.8307e+01		1.0000e+00
			7.55		4.8066e+01		1.0000e+00
			7.6		4.7825e+01		1.0000e+00
			7.65		4.7584e+01		1.0000e+00
			7.7		4.7116e+01		1.0000e+00
			7.75		4.6648e+01		1.0000e+00
			7.8		4.6181e+01		1.0000e+00
			7.85		4.5713e+01		1.0000e+00
			7.9		4.4251e+01		1.0000e+00
			7.95		4.2789e+01		1.0000e+00
			8.0		4.1327e+01		1.0000e+00
			8.05		3.9864e+01		1.0000e+00
			8.1		3.5870e+01		1.0000e+00
			8.15		3.1876e+01		1.0000e+00
			8.2		2.7881e+01		1.0000e+00
			8.25		2.3887e+01		1.0000e+00
			8.3		2.0530e+01		1.0000e+00
			8.35		1.7172e+01		1.0000e+00
			8.4		1.3814e+01		1.0000e+00
			8.45		1.0457e+01		1.0000e+00
			8.5		9.6306e+00		1.0000e+00
			8.55		8.8046e+00		1.0000e+00
			8.6		7.9786e+00		1.0000e+00
			8.65		7.1527e+00		1.0000e+00
			8.7		6.9258e+00		1.0000e+00
			8.75		6.6988e+00		1.0000e+00
			8.8		6.4719e+00		1.0000e+00
			8.85		6.2449e+00		1.0000e+00
			8.9		6.0181e+00		1.0000e+00
			8.95		5.7913e+00		1.0000e+00
			9.0		5.5645e+00		1.0000e+00
			9.05		5.3377e+00		1.0000e+00
			9.1		5.2595e+00		1.0000e+00
			9.15		5.1814e+00		1.0000e+00
			9.2		5.1032e+00		1.0000e+00
			9.25		5.0251e+00		1.0000e+00
			9.3		4.9470e+00		1.0000e+00
			9.35		4.8689e+00		1.0000e+00
			9.4		4.7908e+00		1.0000e+00
			9.45		4.7127e+00		1.0000e+00
			9.5		4.6346e+00		1.0000e+00
			9.55		4.5566e+00		1.0000e+00
			9.6		4.4785e+00		1.0000e+00
			9.65		4.4004e+00		1.0000e+00
			9.7		4.3224e+00		1.0000e+00
			9.75		4.2444e+00		1.0000e+00
			9.8		4.1664e+00		1.0000e+00
			9.85		4.0884e+00		1.0000e+00
			9.9		4.0339e+00		1.0000e+00
			9.95		3.9795e+00		1.0000e+00
			10.0		3.9250e+00		1.0000e+00
			10.05		3.8706e+00		1.0000e+00
			10.1		3.8162e+00		1.0000e+00
			10.15		3.7617e+00		1.0000e+00
			10.2		3.7073e+00		1.0000e+00
			10.25		3.6529e+00		1.0000e+00
			10.3		3.5985e+00		1.0000e+00
			10.35		3.5441e+00		1.0000e+00
			10.4		3.4897e+00		1.0000e+00
			10.45		3.4353e+00		1.0000e+00
			10.5		3.3810e+00		1.0000e+00
			10.55		3.3266e+00		1.0000e+00
			10.6		3.2722e+00		1.0000e+00
			10.65		3.2179e+00		1.0000e+00
			10.7		3.1759e+00		1.0000e+00
			10.75		3.1339e+00		1.0000e+00
			10.8		3.0920e+00		1.0000e+00
			10.85		3.0500e+00		1.0000e+00
			10.9		3.0081e+00		1.0000e+00
			10.95		2.9662e+00		1.0000e+00
			11.0		2.9242e+00		1.0000e+00
			11.05		2.8823e+00		1.0000e+00
			11.1		2.8404e+00		1.0000e+00
			11.15		2.7985e+00		1.0000e+00
			11.2		2.7566e+00		1.0000e+00
			11.25		2.7146e+00		1.0000e+00
			11.3		2.6728e+00		1.0000e+00
			11.35		2.6309e+00		1.0000e+00
			11.4		2.5890e+00		1.0000e+00
			11.45		2.5471e+00		1.0000e+00
			11.5		2.5179e+00		1.0000e+00
			11.55		2.4887e+00		1.0000e+00
			11.6		2.4595e+00		1.0000e+00
			11.65		2.4303e+00		1.0000e+00
			11.7		2.4011e+00		1.0000e+00
			11.75		2.3719e+00		1.0000e+00
			11.8		2.3427e+00		1.0000e+00
			11.85		2.3135e+00		1.0000e+00
			11.9		2.2843e+00		1.0000e+00
			11.95		2.2551e+00		1.0000e+00
			12.0		2.2260e+00		1.0000e+00
			12.05		2.1968e+00		1.0000e+00
			12.1		2.1676e+00		1.0000e+00
			12.15		2.1385e+00		1.0000e+00
			12.2		2.1093e+00		1.0000e+00
			12.25		2.0802e+00		1.0000e+00
			12.3		2.0514e+00		1.0000e+00
			12.35		2.0227e+00		1.0000e+00
			12.4		1.9940e+00		1.0000e+00
			12.45		1.9653e+00		1.0000e+00
			12.5		1.9366e+00		1.0000e+00
			12.55		1.9078e+00		1.0000e+00
			12.6		1.8791e+00		1.0000e+00
			12.65		1.8504e+00		1.0000e+00
			12.7		1.8217e+00		1.0000e+00
			12.75		1.7931e+00		1.0000e+00
			12.8		1.7644e+00		1.0000e+00
			12.85		1.7357e+00		1.0000e+00
			12.9		1.7070e+00		1.0000e+00
			12.95		1.6784e+00		1.0000e+00
			13.0		1.6497e+00		1.0000e+00
			13.05		1.6210e+00		1.0000e+00
			13.1		1.5960e+00		1.0000e+00
			13.15		1.5710e+00		1.0000e+00
			13.2		1.5460e+00		1.0000e+00
			13.25		1.5210e+00		1.0000e+00
			13.3		1.4960e+00		1.0000e+00
			13.35		1.4710e+00		1.0000e+00
			13.4		1.4460e+00		1.0000e+00
			13.45		1.4210e+00		1.0000e+00
			13.5		1.3960e+00		1.0000e+00
			13.55		1.3710e+00		1.0000e+00
			13.6		1.3460e+00		1.0000e+00
			13.65		1.3210e+00		1.0000e+00
			13.7		1.2961e+00		1.0000e+00
			13.75		1.2711e+00		1.0000e+00
			13.8		1.2461e+00		1.0000e+00
			13.85		1.2212e+00		1.0000e+00
			13.9		1.2083e+00		1.0000e+00
			13.95		1.1955e+00		1.0000e+00
