BEGIN_SCAN_DATA
	FORMAT=CC-Export V1.9                  
	FILE_CREATION_DATE=
	LAST_MODIFIED=11-Jan-2023 10:50:14
	BEGIN_SCAN  1
		TASK_NAME=RayStation Phantom Profiles & PDDs
		PROGRAM=RayStation
		COMMENT=RayStation Script Export
		MEAS_DATE=11-Jan-2023 10:50:14
		LINAC=RayStation
		MODALITY=X
		ISOCENTER=1000.00
		INPLANE_AXIS=Y
		CROSSPLANE_AXIS=X
		DEPTH_AXIS=Z
		INPLANE_AXIS_DIR=GUN_TARGET
		CROSSPLANE_AXIS_DIR=LEFT_RIGHT
		DEPTH_AXIS_DIR=UP_DOWN
		ENERGY=6.3
		NOMINAL_DMAX=20.00
		SSD=1000.0
		SCD=1000.00
		WEDGE_ANGLE=0.00
		FIELD_INPLANE=150.0
		FIELD_CROSSPLANE=100.0
		FIELD_TYPE=IRREGULAR
		GANTRY=0.00
		GANTRY_UPRIGHT_POSITION=0
		GANTRY_ROTATION=CW
		COLL_ANGLE=0.00
		REF_FIELD_DEPTH=50.00
		REF_FIELD_DEFINED=ISOCENTER
		FIELD_INPLANE=150.0
		FIELD_CROSSPLANE=100.0
		SCAN_CURVETYPE=INPLANE_PROFILE
		SCAN_DEPTH=20.0
		SCAN_OFFAXIS_INPLANE=0.00
		SCAN_OFFAXIS_CROSSPLANE=0.00
		SCAN_ANGLE=0.00
		SCAN_DIAGONAL=NOT_DIAGONAL
		SCAN_DIRECTION=NEGATIVE
		MEAS_MEDIUM=WATER
		MEAS_UNIT=cGy
		INCLINATION_ANGLE=0.00
		PRESSURE=1013.20
		TEMPERATURE=20.00
		NORM_TEMPERATURE=20.00
		CORRECTION_FACTOR=1.0000;
		BEGIN_DATA
			-5.0		1.0983e-03		1.0000e+00
			-4.95		1.1004e-03		1.0000e+00
			-4.9		1.1024e-03		1.0000e+00
			-4.85		1.1045e-03		1.0000e+00
			-4.8		1.1065e-03		1.0000e+00
			-4.75		1.1269e-03		1.0000e+00
			-4.7		1.1473e-03		1.0000e+00
			-4.65		1.1677e-03		1.0000e+00
			-4.6		1.1881e-03		1.0000e+00
			-4.55		1.1922e-03		1.0000e+00
			-4.5		1.1963e-03		1.0000e+00
			-4.45		1.2004e-03		1.0000e+00
			-4.4		1.2044e-03		1.0000e+00
			-4.35		1.2260e-03		1.0000e+00
			-4.3		1.2475e-03		1.0000e+00
			-4.25		1.2690e-03		1.0000e+00
			-4.2		1.2905e-03		1.0000e+00
			-4.15		1.2951e-03		1.0000e+00
			-4.1		1.2997e-03		1.0000e+00
			-4.05		1.3042e-03		1.0000e+00
			-4.0		1.3088e-03		1.0000e+00
			-3.95		1.3319e-03		1.0000e+00
			-3.9		1.3550e-03		1.0000e+00
			-3.85		1.3781e-03		1.0000e+00
			-3.8		1.4012e-03		1.0000e+00
			-3.75		1.4063e-03		1.0000e+00
			-3.7		1.4113e-03		1.0000e+00
			-3.65		1.4164e-03		1.0000e+00
			-3.6		1.4215e-03		1.0000e+00
			-3.55		1.4456e-03		1.0000e+00
			-3.5		1.4697e-03		1.0000e+00
			-3.45		1.4938e-03		1.0000e+00
			-3.4		1.5180e-03		1.0000e+00
			-3.35		1.5242e-03		1.0000e+00
			-3.3		1.5304e-03		1.0000e+00
			-3.25		1.5367e-03		1.0000e+00
			-3.2		1.5429e-03		1.0000e+00
			-3.15		1.5682e-03		1.0000e+00
			-3.1		1.5935e-03		1.0000e+00
			-3.05		1.6188e-03		1.0000e+00
			-3.0		1.6440e-03		1.0000e+00
			-2.95		1.6508e-03		1.0000e+00
			-2.9		1.6575e-03		1.0000e+00
			-2.85		1.6643e-03		1.0000e+00
			-2.8		1.6710e-03		1.0000e+00
			-2.75		1.6975e-03		1.0000e+00
			-2.7		1.7240e-03		1.0000e+00
			-2.65		1.7505e-03		1.0000e+00
			-2.6		1.7770e-03		1.0000e+00
			-2.55		1.7848e-03		1.0000e+00
			-2.5		1.7926e-03		1.0000e+00
			-2.45		1.8003e-03		1.0000e+00
			-2.4		1.8081e-03		1.0000e+00
			-2.35		1.8361e-03		1.0000e+00
			-2.3		1.8641e-03		1.0000e+00
			-2.25		1.8921e-03		1.0000e+00
			-2.2		1.9201e-03		1.0000e+00
			-2.15		1.9283e-03		1.0000e+00
			-2.1		1.9365e-03		1.0000e+00
			-2.05		1.9447e-03		1.0000e+00
			-2.0		1.9529e-03		1.0000e+00
			-1.95		1.9828e-03		1.0000e+00
			-1.9		2.0128e-03		1.0000e+00
			-1.85		2.0427e-03		1.0000e+00
			-1.8		2.0727e-03		1.0000e+00
			-1.75		2.0816e-03		1.0000e+00
			-1.7		2.0905e-03		1.0000e+00
			-1.65		2.0993e-03		1.0000e+00
			-1.6		2.1082e-03		1.0000e+00
			-1.55		2.1392e-03		1.0000e+00
			-1.5		2.1702e-03		1.0000e+00
			-1.45		2.2012e-03		1.0000e+00
			-1.4		2.2322e-03		1.0000e+00
			-1.35		2.2434e-03		1.0000e+00
			-1.3		2.2545e-03		1.0000e+00
			-1.25		2.2657e-03		1.0000e+00
			-1.2		2.2768e-03		1.0000e+00
			-1.15		2.3108e-03		1.0000e+00
			-1.1		2.3447e-03		1.0000e+00
			-1.05		2.3787e-03		1.0000e+00
			-1.0		2.4126e-03		1.0000e+00
			-0.95		2.4250e-03		1.0000e+00
			-0.9		2.4374e-03		1.0000e+00
			-0.85		2.4499e-03		1.0000e+00
			-0.8		2.4623e-03		1.0000e+00
			-0.75		2.4972e-03		1.0000e+00
			-0.7		2.5322e-03		1.0000e+00
			-0.65		2.5672e-03		1.0000e+00
			-0.6		2.6022e-03		1.0000e+00
			-0.55		2.6169e-03		1.0000e+00
			-0.5		2.6316e-03		1.0000e+00
			-0.45		2.6462e-03		1.0000e+00
			-0.4		2.6609e-03		1.0000e+00
			-0.35		2.6970e-03		1.0000e+00
			-0.3		2.7331e-03		1.0000e+00
			-0.25		2.7693e-03		1.0000e+00
			-0.2		2.8054e-03		1.0000e+00
			-0.15		2.8204e-03		1.0000e+00
			-0.1		2.8354e-03		1.0000e+00
			-0.05		2.8505e-03		1.0000e+00
			-0.0		2.8655e-03		1.0000e+00
			0.05		2.9022e-03		1.0000e+00
			0.1		2.9389e-03		1.0000e+00
			0.15		2.9755e-03		1.0000e+00
			0.2		3.0122e-03		1.0000e+00
			0.25		3.0290e-03		1.0000e+00
			0.3		3.0458e-03		1.0000e+00
			0.35		3.0627e-03		1.0000e+00
			0.4		3.0795e-03		1.0000e+00
			0.45		3.1172e-03		1.0000e+00
			0.5		3.1550e-03		1.0000e+00
			0.55		3.1928e-03		1.0000e+00
			0.6		3.2305e-03		1.0000e+00
			0.65		3.2484e-03		1.0000e+00
			0.7		3.2663e-03		1.0000e+00
			0.75		3.2841e-03		1.0000e+00
			0.8		3.3020e-03		1.0000e+00
			0.85		3.3420e-03		1.0000e+00
			0.9		3.3820e-03		1.0000e+00
			0.95		3.4220e-03		1.0000e+00
			1.0		3.4620e-03		1.0000e+00
			1.05		3.4814e-03		1.0000e+00
			1.1		3.5008e-03		1.0000e+00
			1.15		3.5203e-03		1.0000e+00
			1.2		3.5397e-03		1.0000e+00
			1.25		3.5799e-03		1.0000e+00
			1.3		3.6201e-03		1.0000e+00
			1.35		3.6604e-03		1.0000e+00
			1.4		3.7006e-03		1.0000e+00
			1.45		3.7225e-03		1.0000e+00
			1.5		3.7443e-03		1.0000e+00
			1.55		3.7662e-03		1.0000e+00
			1.6		3.7881e-03		1.0000e+00
			1.65		3.8302e-03		1.0000e+00
			1.7		3.8723e-03		1.0000e+00
			1.75		3.9144e-03		1.0000e+00
			1.8		3.9564e-03		1.0000e+00
			1.85		3.9805e-03		1.0000e+00
			1.9		4.0045e-03		1.0000e+00
			1.95		4.0285e-03		1.0000e+00
			2.0		4.0525e-03		1.0000e+00
			2.05		4.0946e-03		1.0000e+00
			2.1		4.1368e-03		1.0000e+00
			2.15		4.1789e-03		1.0000e+00
			2.2		4.2210e-03		1.0000e+00
			2.25		4.2486e-03		1.0000e+00
			2.3		4.2762e-03		1.0000e+00
			2.35		4.3038e-03		1.0000e+00
			2.4		4.3314e-03		1.0000e+00
			2.45		4.3736e-03		1.0000e+00
			2.5		4.4157e-03		1.0000e+00
			2.55		4.4579e-03		1.0000e+00
			2.6		4.5001e-03		1.0000e+00
			2.65		4.5296e-03		1.0000e+00
			2.7		4.5592e-03		1.0000e+00
			2.75		4.5887e-03		1.0000e+00
			2.8		4.6183e-03		1.0000e+00
			2.85		4.6612e-03		1.0000e+00
			2.9		4.7041e-03		1.0000e+00
			2.95		4.7470e-03		1.0000e+00
			3.0		4.7898e-03		1.0000e+00
			3.05		4.8237e-03		1.0000e+00
			3.1		4.8575e-03		1.0000e+00
			3.15		4.8913e-03		1.0000e+00
			3.2		4.9252e-03		1.0000e+00
			3.25		4.9679e-03		1.0000e+00
			3.3		5.0107e-03		1.0000e+00
			3.35		5.0534e-03		1.0000e+00
			3.4		5.0962e-03		1.0000e+00
			3.45		5.1323e-03		1.0000e+00
			3.5		5.1684e-03		1.0000e+00
			3.55		5.2044e-03		1.0000e+00
			3.6		5.2405e-03		1.0000e+00
			3.65		5.2845e-03		1.0000e+00
			3.7		5.3284e-03		1.0000e+00
			3.75		5.3724e-03		1.0000e+00
			3.8		5.4164e-03		1.0000e+00
			3.85		5.4554e-03		1.0000e+00
			3.9		5.4944e-03		1.0000e+00
			3.95		5.5334e-03		1.0000e+00
			4.0		5.5724e-03		1.0000e+00
			4.05		5.6152e-03		1.0000e+00
			4.1		5.6580e-03		1.0000e+00
			4.15		5.7008e-03		1.0000e+00
			4.2		5.7436e-03		1.0000e+00
			4.25		5.7864e-03		1.0000e+00
			4.3		5.8293e-03		1.0000e+00
			4.35		5.8721e-03		1.0000e+00
			4.4		5.9149e-03		1.0000e+00
			4.45		5.9589e-03		1.0000e+00
			4.5		6.0029e-03		1.0000e+00
			4.55		6.0469e-03		1.0000e+00
			4.6		6.0909e-03		1.0000e+00
			4.65		6.1371e-03		1.0000e+00
			4.7		6.1833e-03		1.0000e+00
			4.75		6.2295e-03		1.0000e+00
			4.8		6.2757e-03		1.0000e+00
			4.85		6.3179e-03		1.0000e+00
			4.9		6.3601e-03		1.0000e+00
			4.95		6.4023e-03		1.0000e+00
			5.0		6.4444e-03		1.0000e+00
			5.05		6.4957e-03		1.0000e+00
			5.1		6.5469e-03		1.0000e+00
			5.15		6.5982e-03		1.0000e+00
			5.2		6.6494e-03		1.0000e+00
			5.25		6.6910e-03		1.0000e+00
			5.3		6.7327e-03		1.0000e+00
			5.35		6.7743e-03		1.0000e+00
			5.4		6.8160e-03		1.0000e+00
			5.45		6.8704e-03		1.0000e+00
			5.5		6.9248e-03		1.0000e+00
			5.55		6.9792e-03		1.0000e+00
			5.6		7.0337e-03		1.0000e+00
			5.65		7.0749e-03		1.0000e+00
			5.7		7.1162e-03		1.0000e+00
			5.75		7.1575e-03		1.0000e+00
			5.8		7.1988e-03		1.0000e+00
			5.85		7.2591e-03		1.0000e+00
			5.9		7.3194e-03		1.0000e+00
			5.95		7.3797e-03		1.0000e+00
			6.0		7.4401e-03		1.0000e+00
			6.05		7.4800e-03		1.0000e+00
			6.1		7.5200e-03		1.0000e+00
			6.15		7.5600e-03		1.0000e+00
			6.2		7.6000e-03		1.0000e+00
			6.25		7.7505e-03		1.0000e+00
			6.3		7.9010e-03		1.0000e+00
			6.35		8.0515e-03		1.0000e+00
			6.4		8.2019e-03		1.0000e+00
			6.45		8.2980e-03		1.0000e+00
			6.5		8.3940e-03		1.0000e+00
			6.55		8.4901e-03		1.0000e+00
			6.6		8.5861e-03		1.0000e+00
			6.65		8.9656e-03		1.0000e+00
			6.7		9.3452e-03		1.0000e+00
			6.75		9.7247e-03		1.0000e+00
			6.8		1.0104e-02		1.0000e+00
			6.85		1.0325e-02		1.0000e+00
			6.9		1.0547e-02		1.0000e+00
			6.95		1.0768e-02		1.0000e+00
			7.0		1.0989e-02		1.0000e+00
			7.05		1.1484e-02		1.0000e+00
			7.1		1.1978e-02		1.0000e+00
			7.15		1.2473e-02		1.0000e+00
			7.2		1.2968e-02		1.0000e+00
			7.25		1.3237e-02		1.0000e+00
			7.3		1.3507e-02		1.0000e+00
			7.35		1.3776e-02		1.0000e+00
			7.4		1.4046e-02		1.0000e+00
			7.45		1.4684e-02		1.0000e+00
			7.5		1.5322e-02		1.0000e+00
			7.55		1.5960e-02		1.0000e+00
			7.6		1.6598e-02		1.0000e+00
			7.65		1.6916e-02		1.0000e+00
			7.7		1.7234e-02		1.0000e+00
			7.75		1.7551e-02		1.0000e+00
			7.8		1.7869e-02		1.0000e+00
			7.85		1.8690e-02		1.0000e+00
			7.9		1.9511e-02		1.0000e+00
			7.95		2.0333e-02		1.0000e+00
			8.0		2.1154e-02		1.0000e+00
			8.05		2.1532e-02		1.0000e+00
			8.1		2.1910e-02		1.0000e+00
			8.15		2.2288e-02		1.0000e+00
			8.2		2.2665e-02		1.0000e+00
			8.25		2.3696e-02		1.0000e+00
			8.3		2.4727e-02		1.0000e+00
			8.35		2.5757e-02		1.0000e+00
			8.4		2.6788e-02		1.0000e+00
			8.45		2.7225e-02		1.0000e+00
			8.5		2.7662e-02		1.0000e+00
			8.55		2.8099e-02		1.0000e+00
			8.6		2.8537e-02		1.0000e+00
			8.65		2.9823e-02		1.0000e+00
			8.7		3.1110e-02		1.0000e+00
			8.75		3.2396e-02		1.0000e+00
			8.8		3.3683e-02		1.0000e+00
			8.85		3.4184e-02		1.0000e+00
			8.9		3.4685e-02		1.0000e+00
			8.95		3.5186e-02		1.0000e+00
			9.0		3.5688e-02		1.0000e+00
			9.05		3.7269e-02		1.0000e+00
			9.1		3.8851e-02		1.0000e+00
			9.15		4.0433e-02		1.0000e+00
			9.2		4.2015e-02		1.0000e+00
			9.25		4.2596e-02		1.0000e+00
			9.3		4.3178e-02		1.0000e+00
			9.35		4.3760e-02		1.0000e+00
			9.4		4.4341e-02		1.0000e+00
			9.45		4.6264e-02		1.0000e+00
			9.5		4.8187e-02		1.0000e+00
			9.55		5.0110e-02		1.0000e+00
			9.6		5.2033e-02		1.0000e+00
			9.65		5.2687e-02		1.0000e+00
			9.7		5.3341e-02		1.0000e+00
			9.75		5.3995e-02		1.0000e+00
			9.8		5.4650e-02		1.0000e+00
			9.85		5.6954e-02		1.0000e+00
			9.9		5.9259e-02		1.0000e+00
			9.95		6.1564e-02		1.0000e+00
			10.0		6.3869e-02		1.0000e+00
			10.05		6.4613e-02		1.0000e+00
			10.1		6.5357e-02		1.0000e+00
			10.15		6.6101e-02		1.0000e+00
			10.2		6.6845e-02		1.0000e+00
			10.25		6.9599e-02		1.0000e+00
			10.3		7.2353e-02		1.0000e+00
			10.35		7.5107e-02		1.0000e+00
			10.4		7.7860e-02		1.0000e+00
			10.45		7.8658e-02		1.0000e+00
			10.5		7.9456e-02		1.0000e+00
			10.55		8.0254e-02		1.0000e+00
			10.6		8.1052e-02		1.0000e+00
			10.65		8.4333e-02		1.0000e+00
			10.7		8.7614e-02		1.0000e+00
			10.75		9.0895e-02		1.0000e+00
			10.8		9.4176e-02		1.0000e+00
			10.85		9.5044e-02		1.0000e+00
			10.9		9.5913e-02		1.0000e+00
			10.95		9.6781e-02		1.0000e+00
			11.0		9.7649e-02		1.0000e+00
			11.05		1.0148e-01		1.0000e+00
			11.1		1.0531e-01		1.0000e+00
			11.15		1.0914e-01		1.0000e+00
			11.2		1.1297e-01		1.0000e+00
			11.25		1.1388e-01		1.0000e+00
			11.3		1.1480e-01		1.0000e+00
			11.35		1.1571e-01		1.0000e+00
			11.4		1.1663e-01		1.0000e+00
			11.45		1.6653e-01		1.0000e+00
			11.5		2.1644e-01		1.0000e+00
			11.55		2.6634e-01		1.0000e+00
			11.6		3.1625e-01		1.0000e+00
			11.65		3.6609e-01		1.0000e+00
			11.7		4.1592e-01		1.0000e+00
			11.75		4.6576e-01		1.0000e+00
			11.8		5.1560e-01		1.0000e+00
			11.85		5.6542e-01		1.0000e+00
			11.9		6.1524e-01		1.0000e+00
			11.95		6.6506e-01		1.0000e+00
			12.0		7.1488e-01		1.0000e+00
			12.05		7.6473e-01		1.0000e+00
			12.1		8.1458e-01		1.0000e+00
			12.15		8.6443e-01		1.0000e+00
			12.2		9.1428e-01		1.0000e+00
			12.25		9.2529e-01		1.0000e+00
			12.3		9.3630e-01		1.0000e+00
			12.35		9.4732e-01		1.0000e+00
			12.4		9.5833e-01		1.0000e+00
			12.45		9.6935e-01		1.0000e+00
			12.5		9.8037e-01		1.0000e+00
			12.55		9.9138e-01		1.0000e+00
			12.6		1.0024e+00		1.0000e+00
			12.65		1.0134e+00		1.0000e+00
			12.7		1.0245e+00		1.0000e+00
			12.75		1.0355e+00		1.0000e+00
			12.8		1.0465e+00		1.0000e+00
			12.85		1.0575e+00		1.0000e+00
			12.9		1.0686e+00		1.0000e+00
			12.95		1.0796e+00		1.0000e+00
			13.0		1.0906e+00		1.0000e+00
			13.05		1.0996e+00		1.0000e+00
			13.1		1.1086e+00		1.0000e+00
			13.15		1.1176e+00		1.0000e+00
			13.2		1.1266e+00		1.0000e+00
			13.25		1.1356e+00		1.0000e+00
			13.3		1.1446e+00		1.0000e+00
			13.35		1.1536e+00		1.0000e+00
			13.4		1.1626e+00		1.0000e+00
			13.45		1.1716e+00		1.0000e+00
			13.5		1.1806e+00		1.0000e+00
			13.55		1.1896e+00		1.0000e+00
			13.6		1.1986e+00		1.0000e+00
			13.65		1.2076e+00		1.0000e+00
			13.7		1.2166e+00		1.0000e+00
			13.75		1.2256e+00		1.0000e+00
			13.8		1.2346e+00		1.0000e+00
			13.85		1.2461e+00		1.0000e+00
			13.9		1.2576e+00		1.0000e+00
			13.95		1.2691e+00		1.0000e+00
			14.0		1.2806e+00		1.0000e+00
			14.05		1.2920e+00		1.0000e+00
			14.1		1.3035e+00		1.0000e+00
			14.15		1.3150e+00		1.0000e+00
			14.2		1.3265e+00		1.0000e+00
			14.25		1.3380e+00		1.0000e+00
			14.3		1.3495e+00		1.0000e+00
			14.35		1.3610e+00		1.0000e+00
			14.4		1.3725e+00		1.0000e+00
			14.45		1.3840e+00		1.0000e+00
			14.5		1.3955e+00		1.0000e+00
			14.55		1.4070e+00		1.0000e+00
			14.6		1.4185e+00		1.0000e+00
			14.65		1.4355e+00		1.0000e+00
			14.7		1.4525e+00		1.0000e+00
			14.75		1.4695e+00		1.0000e+00
			14.8		1.4866e+00		1.0000e+00
			14.85		1.5036e+00		1.0000e+00
			14.9		1.5206e+00		1.0000e+00
			14.95		1.5376e+00		1.0000e+00
			15.0		1.5547e+00		1.0000e+00
			15.05		1.5717e+00		1.0000e+00
			15.1		1.5887e+00		1.0000e+00
			15.15		1.6057e+00		1.0000e+00
			15.2		1.6228e+00		1.0000e+00
			15.25		1.6398e+00		1.0000e+00
			15.3		1.6569e+00		1.0000e+00
			15.35		1.6739e+00		1.0000e+00
			15.4		1.6909e+00		1.0000e+00
			15.45		1.7117e+00		1.0000e+00
			15.5		1.7324e+00		1.0000e+00
			15.55		1.7532e+00		1.0000e+00
			15.6		1.7739e+00		1.0000e+00
			15.65		1.7947e+00		1.0000e+00
			15.7		1.8154e+00		1.0000e+00
			15.75		1.8362e+00		1.0000e+00
			15.8		1.8569e+00		1.0000e+00
			15.85		1.8777e+00		1.0000e+00
			15.9		1.8985e+00		1.0000e+00
			15.95		1.9192e+00		1.0000e+00
			16.0		1.9400e+00		1.0000e+00
			16.05		1.9608e+00		1.0000e+00
			16.1		1.9815e+00		1.0000e+00
			16.15		2.0023e+00		1.0000e+00
			16.2		2.0231e+00		1.0000e+00
			16.25		2.0581e+00		1.0000e+00
			16.3		2.0931e+00		1.0000e+00
			16.35		2.1281e+00		1.0000e+00
			16.4		2.1630e+00		1.0000e+00
			16.45		2.1980e+00		1.0000e+00
			16.5		2.2330e+00		1.0000e+00
			16.55		2.2681e+00		1.0000e+00
			16.6		2.3031e+00		1.0000e+00
			16.65		2.3381e+00		1.0000e+00
			16.7		2.3731e+00		1.0000e+00
			16.75		2.4081e+00		1.0000e+00
			16.8		2.4431e+00		1.0000e+00
			16.85		2.4781e+00		1.0000e+00
			16.9		2.5132e+00		1.0000e+00
			16.95		2.5482e+00		1.0000e+00
			17.0		2.5832e+00		1.0000e+00
			17.05		2.6280e+00		1.0000e+00
			17.1		2.6727e+00		1.0000e+00
			17.15		2.7175e+00		1.0000e+00
			17.2		2.7622e+00		1.0000e+00
			17.25		2.8070e+00		1.0000e+00
			17.3		2.8517e+00		1.0000e+00
			17.35		2.8965e+00		1.0000e+00
			17.4		2.9412e+00		1.0000e+00
			17.45		2.9865e+00		1.0000e+00
			17.5		3.0317e+00		1.0000e+00
			17.55		3.0770e+00		1.0000e+00
			17.6		3.1222e+00		1.0000e+00
			17.65		3.1674e+00		1.0000e+00
			17.7		3.2127e+00		1.0000e+00
			17.75		3.2579e+00		1.0000e+00
			17.8		3.3032e+00		1.0000e+00
			17.85		3.4058e+00		1.0000e+00
			17.9		3.5084e+00		1.0000e+00
			17.95		3.6110e+00		1.0000e+00
			18.0		3.7137e+00		1.0000e+00
			18.05		3.9529e+00		1.0000e+00
			18.1		4.1922e+00		1.0000e+00
			18.15		4.4315e+00		1.0000e+00
			18.2		4.6708e+00		1.0000e+00
			18.25		5.4075e+00		1.0000e+00
			18.3		6.1441e+00		1.0000e+00
			18.35		6.8808e+00		1.0000e+00
			18.4		7.6175e+00		1.0000e+00
			18.45		8.5606e+00		1.0000e+00
			18.5		9.5036e+00		1.0000e+00
			18.55		1.0447e+01		1.0000e+00
			18.6		1.1390e+01		1.0000e+00
			18.65		1.1824e+01		1.0000e+00
			18.7		1.2259e+01		1.0000e+00
			18.75		1.2693e+01		1.0000e+00
			18.8		1.3128e+01		1.0000e+00
			18.85		1.3286e+01		1.0000e+00
			18.9		1.3444e+01		1.0000e+00
			18.95		1.3603e+01		1.0000e+00
			19.0		1.3761e+01		1.0000e+00
			19.05		1.3831e+01		1.0000e+00
			19.1		1.3902e+01		1.0000e+00
			19.15		1.3973e+01		1.0000e+00
			19.2		1.4043e+01		1.0000e+00
			19.25		1.4082e+01		1.0000e+00
			19.3		1.4121e+01		1.0000e+00
			19.35		1.4161e+01		1.0000e+00
			19.4		1.4200e+01		1.0000e+00
			19.45		1.4227e+01		1.0000e+00
			19.5		1.4253e+01		1.0000e+00
			19.55		1.4280e+01		1.0000e+00
			19.6		1.4307e+01		1.0000e+00
			19.65		1.4333e+01		1.0000e+00
			19.7		1.4358e+01		1.0000e+00
			19.75		1.4384e+01		1.0000e+00
			19.8		1.4410e+01		1.0000e+00
			19.85		1.4435e+01		1.0000e+00
			19.9		1.4461e+01		1.0000e+00
			19.95		1.4487e+01		1.0000e+00
			20.0		1.4513e+01		1.0000e+00
			20.05		1.4538e+01		1.0000e+00
			20.1		1.4564e+01		1.0000e+00
			20.15		1.4590e+01		1.0000e+00
			20.2		1.4616e+01		1.0000e+00
			20.25		1.4639e+01		1.0000e+00
			20.3		1.4662e+01		1.0000e+00
			20.35		1.4685e+01		1.0000e+00
			20.4		1.4708e+01		1.0000e+00
			20.45		1.4731e+01		1.0000e+00
			20.5		1.4754e+01		1.0000e+00
			20.55		1.4777e+01		1.0000e+00
			20.6		1.4801e+01		1.0000e+00
			20.65		1.4824e+01		1.0000e+00
			20.7		1.4847e+01		1.0000e+00
			20.75		1.4870e+01		1.0000e+00
			20.8		1.4893e+01		1.0000e+00
			20.85		1.4916e+01		1.0000e+00
			20.9		1.4939e+01		1.0000e+00
			20.95		1.4962e+01		1.0000e+00
			21.0		1.4985e+01		1.0000e+00
			21.05		1.4998e+01		1.0000e+00
			21.1		1.5010e+01		1.0000e+00
			21.15		1.5023e+01		1.0000e+00
			21.2		1.5036e+01		1.0000e+00
			21.25		1.5048e+01		1.0000e+00
			21.3		1.5061e+01		1.0000e+00
			21.35		1.5073e+01		1.0000e+00
			21.4		1.5086e+01		1.0000e+00
			21.45		1.5098e+01		1.0000e+00
			21.5		1.5111e+01		1.0000e+00
			21.55		1.5123e+01		1.0000e+00
			21.6		1.5136e+01		1.0000e+00
			21.65		1.5148e+01		1.0000e+00
			21.7		1.5160e+01		1.0000e+00
			21.75		1.5173e+01		1.0000e+00
			21.8		1.5185e+01		1.0000e+00
			21.85		1.5196e+01		1.0000e+00
			21.9		1.5206e+01		1.0000e+00
			21.95		1.5216e+01		1.0000e+00
			22.0		1.5227e+01		1.0000e+00
			22.05		1.5237e+01		1.0000e+00
			22.1		1.5247e+01		1.0000e+00
			22.15		1.5258e+01		1.0000e+00
			22.2		1.5268e+01		1.0000e+00
			22.25		1.5278e+01		1.0000e+00
			22.3		1.5289e+01		1.0000e+00
			22.35		1.5299e+01		1.0000e+00
			22.4		1.5309e+01		1.0000e+00
			22.45		1.5319e+01		1.0000e+00
			22.5		1.5330e+01		1.0000e+00
			22.55		1.5340e+01		1.0000e+00
			22.6		1.5350e+01		1.0000e+00
			22.65		1.5360e+01		1.0000e+00
			22.7		1.5370e+01		1.0000e+00
			22.75		1.5380e+01		1.0000e+00
			22.8		1.5390e+01		1.0000e+00
			22.85		1.5400e+01		1.0000e+00
			22.9		1.5410e+01		1.0000e+00
			22.95		1.5420e+01		1.0000e+00
			23.0		1.5430e+01		1.0000e+00
			23.05		1.5440e+01		1.0000e+00
			23.1		1.5450e+01		1.0000e+00
			23.15		1.5460e+01		1.0000e+00
			23.2		1.5470e+01		1.0000e+00
			23.25		1.5480e+01		1.0000e+00
			23.3		1.5490e+01		1.0000e+00
			23.35		1.5500e+01		1.0000e+00
			23.4		1.5509e+01		1.0000e+00
			23.45		1.5518e+01		1.0000e+00
			23.5		1.5526e+01		1.0000e+00
			23.55		1.5534e+01		1.0000e+00
			23.6		1.5542e+01		1.0000e+00
			23.65		1.5550e+01		1.0000e+00
			23.7		1.5558e+01		1.0000e+00
			23.75		1.5567e+01		1.0000e+00
			23.8		1.5575e+01		1.0000e+00
			23.85		1.5583e+01		1.0000e+00
			23.9		1.5591e+01		1.0000e+00
			23.95		1.5599e+01		1.0000e+00
			24.0		1.5607e+01		1.0000e+00
			24.05		1.5615e+01		1.0000e+00
			24.1		1.5624e+01		1.0000e+00
			24.15		1.5632e+01		1.0000e+00
			24.2		1.5640e+01		1.0000e+00
			24.25		1.5644e+01		1.0000e+00
			24.3		1.5649e+01		1.0000e+00
			24.35		1.5654e+01		1.0000e+00
			24.4		1.5658e+01		1.0000e+00
			24.45		1.5663e+01		1.0000e+00
			24.5		1.5668e+01		1.0000e+00
			24.55		1.5672e+01		1.0000e+00
			24.6		1.5677e+01		1.0000e+00
			24.65		1.5681e+01		1.0000e+00
			24.7		1.5686e+01		1.0000e+00
			24.75		1.5690e+01		1.0000e+00
			24.8		1.5695e+01		1.0000e+00
			24.85		1.5700e+01		1.0000e+00
			24.9		1.5704e+01		1.0000e+00
			24.95		1.5709e+01		1.0000e+00
			25.0		1.5713e+01		1.0000e+00
			25.05		1.5709e+01		1.0000e+00
			25.1		1.5704e+01		1.0000e+00
			25.15		1.5700e+01		1.0000e+00
			25.2		1.5695e+01		1.0000e+00
			25.25		1.5690e+01		1.0000e+00
			25.3		1.5686e+01		1.0000e+00
			25.35		1.5681e+01		1.0000e+00
			25.4		1.5677e+01		1.0000e+00
			25.45		1.5672e+01		1.0000e+00
			25.5		1.5668e+01		1.0000e+00
			25.55		1.5663e+01		1.0000e+00
			25.6		1.5658e+01		1.0000e+00
			25.65		1.5654e+01		1.0000e+00
			25.7		1.5649e+01		1.0000e+00
			25.75		1.5644e+01		1.0000e+00
			25.8		1.5640e+01		1.0000e+00
			25.85		1.5632e+01		1.0000e+00
			25.9		1.5624e+01		1.0000e+00
			25.95		1.5615e+01		1.0000e+00
			26.0		1.5607e+01		1.0000e+00
			26.05		1.5599e+01		1.0000e+00
			26.1		1.5591e+01		1.0000e+00
			26.15		1.5583e+01		1.0000e+00
			26.2		1.5575e+01		1.0000e+00
			26.25		1.5567e+01		1.0000e+00
			26.3		1.5559e+01		1.0000e+00
			26.35		1.5550e+01		1.0000e+00
			26.4		1.5542e+01		1.0000e+00
			26.45		1.5534e+01		1.0000e+00
			26.5		1.5526e+01		1.0000e+00
			26.55		1.5518e+01		1.0000e+00
			26.6		1.5510e+01		1.0000e+00
			26.65		1.5500e+01		1.0000e+00
			26.7		1.5490e+01		1.0000e+00
			26.75		1.5480e+01		1.0000e+00
			26.8		1.5470e+01		1.0000e+00
			26.85		1.5460e+01		1.0000e+00
			26.9		1.5450e+01		1.0000e+00
			26.95		1.5440e+01		1.0000e+00
			27.0		1.5430e+01		1.0000e+00
			27.05		1.5420e+01		1.0000e+00
			27.1		1.5410e+01		1.0000e+00
			27.15		1.5400e+01		1.0000e+00
			27.2		1.5390e+01		1.0000e+00
			27.25		1.5380e+01		1.0000e+00
			27.3		1.5371e+01		1.0000e+00
			27.35		1.5361e+01		1.0000e+00
			27.4		1.5351e+01		1.0000e+00
			27.45		1.5340e+01		1.0000e+00
			27.5		1.5330e+01		1.0000e+00
			27.55		1.5320e+01		1.0000e+00
			27.6		1.5309e+01		1.0000e+00
			27.65		1.5299e+01		1.0000e+00
			27.7		1.5289e+01		1.0000e+00
			27.75		1.5279e+01		1.0000e+00
			27.8		1.5268e+01		1.0000e+00
			27.85		1.5258e+01		1.0000e+00
			27.9		1.5248e+01		1.0000e+00
			27.95		1.5237e+01		1.0000e+00
			28.0		1.5227e+01		1.0000e+00
			28.05		1.5217e+01		1.0000e+00
			28.1		1.5206e+01		1.0000e+00
			28.15		1.5196e+01		1.0000e+00
			28.2		1.5186e+01		1.0000e+00
			28.25		1.5173e+01		1.0000e+00
			28.3		1.5161e+01		1.0000e+00
			28.35		1.5148e+01		1.0000e+00
			28.4		1.5136e+01		1.0000e+00
			28.45		1.5123e+01		1.0000e+00
			28.5		1.5111e+01		1.0000e+00
			28.55		1.5098e+01		1.0000e+00
			28.6		1.5086e+01		1.0000e+00
			28.65		1.5073e+01		1.0000e+00
			28.7		1.5061e+01		1.0000e+00
			28.75		1.5048e+01		1.0000e+00
			28.8		1.5036e+01		1.0000e+00
			28.85		1.5023e+01		1.0000e+00
			28.9		1.5010e+01		1.0000e+00
			28.95		1.4998e+01		1.0000e+00
			29.0		1.4985e+01		1.0000e+00
			29.05		1.4962e+01		1.0000e+00
			29.1		1.4939e+01		1.0000e+00
			29.15		1.4916e+01		1.0000e+00
			29.2		1.4893e+01		1.0000e+00
			29.25		1.4870e+01		1.0000e+00
			29.3		1.4847e+01		1.0000e+00
			29.35		1.4824e+01		1.0000e+00
			29.4		1.4801e+01		1.0000e+00
			29.45		1.4778e+01		1.0000e+00
			29.5		1.4755e+01		1.0000e+00
			29.55		1.4732e+01		1.0000e+00
			29.6		1.4708e+01		1.0000e+00
			29.65		1.4685e+01		1.0000e+00
			29.7		1.4662e+01		1.0000e+00
			29.75		1.4639e+01		1.0000e+00
			29.8		1.4616e+01		1.0000e+00
			29.85		1.4590e+01		1.0000e+00
			29.9		1.4564e+01		1.0000e+00
			29.95		1.4539e+01		1.0000e+00
			30.0		1.4513e+01		1.0000e+00
			30.05		1.4487e+01		1.0000e+00
			30.1		1.4461e+01		1.0000e+00
			30.15		1.4436e+01		1.0000e+00
			30.2		1.4410e+01		1.0000e+00
			30.25		1.4384e+01		1.0000e+00
			30.3		1.4358e+01		1.0000e+00
			30.35		1.4332e+01		1.0000e+00
			30.4		1.4306e+01		1.0000e+00
			30.45		1.4279e+01		1.0000e+00
			30.5		1.4252e+01		1.0000e+00
			30.55		1.4225e+01		1.0000e+00
			30.6		1.4198e+01		1.0000e+00
			30.65		1.4159e+01		1.0000e+00
			30.7		1.4120e+01		1.0000e+00
			30.75		1.4082e+01		1.0000e+00
			30.8		1.4043e+01		1.0000e+00
			30.85		1.3972e+01		1.0000e+00
			30.9		1.3902e+01		1.0000e+00
			30.95		1.3831e+01		1.0000e+00
			31.0		1.3760e+01		1.0000e+00
			31.05		1.3602e+01		1.0000e+00
			31.1		1.3444e+01		1.0000e+00
			31.15		1.3286e+01		1.0000e+00
			31.2		1.3128e+01		1.0000e+00
			31.25		1.2693e+01		1.0000e+00
			31.3		1.2258e+01		1.0000e+00
			31.35		1.1824e+01		1.0000e+00
			31.4		1.1389e+01		1.0000e+00
			31.45		1.0447e+01		1.0000e+00
			31.5		9.5046e+00		1.0000e+00
			31.55		8.5624e+00		1.0000e+00
			31.6		7.6202e+00		1.0000e+00
			31.65		6.8777e+00		1.0000e+00
			31.7		6.1353e+00		1.0000e+00
			31.75		5.3928e+00		1.0000e+00
			31.8		4.6503e+00		1.0000e+00
			31.85		4.4162e+00		1.0000e+00
			31.9		4.1821e+00		1.0000e+00
			31.95		3.9479e+00		1.0000e+00
			32.0		3.7138e+00		1.0000e+00
			32.05		3.6102e+00		1.0000e+00
			32.1		3.5066e+00		1.0000e+00
			32.15		3.4030e+00		1.0000e+00
			32.2		3.2994e+00		1.0000e+00
			32.25		3.2546e+00		1.0000e+00
			32.3		3.2098e+00		1.0000e+00
			32.35		3.1651e+00		1.0000e+00
			32.4		3.1203e+00		1.0000e+00
			32.45		3.0755e+00		1.0000e+00
			32.5		3.0307e+00		1.0000e+00
			32.55		2.9859e+00		1.0000e+00
			32.6		2.9412e+00		1.0000e+00
			32.65		2.8964e+00		1.0000e+00
			32.7		2.8516e+00		1.0000e+00
			32.75		2.8069e+00		1.0000e+00
			32.8		2.7621e+00		1.0000e+00
			32.85		2.7174e+00		1.0000e+00
			32.9		2.6726e+00		1.0000e+00
			32.95		2.6279e+00		1.0000e+00
			33.0		2.5831e+00		1.0000e+00
			33.05		2.5481e+00		1.0000e+00
			33.1		2.5131e+00		1.0000e+00
			33.15		2.4781e+00		1.0000e+00
			33.2		2.4431e+00		1.0000e+00
			33.25		2.4080e+00		1.0000e+00
			33.3		2.3730e+00		1.0000e+00
			33.35		2.3380e+00		1.0000e+00
			33.4		2.3030e+00		1.0000e+00
			33.45		2.2680e+00		1.0000e+00
			33.5		2.2330e+00		1.0000e+00
			33.55		2.1980e+00		1.0000e+00
			33.6		2.1630e+00		1.0000e+00
			33.65		2.1281e+00		1.0000e+00
			33.7		2.0931e+00		1.0000e+00
			33.75		2.0581e+00		1.0000e+00
			33.8		2.0231e+00		1.0000e+00
			33.85		2.0023e+00		1.0000e+00
			33.9		1.9816e+00		1.0000e+00
			33.95		1.9608e+00		1.0000e+00
			34.0		1.9400e+00		1.0000e+00
			34.05		1.9193e+00		1.0000e+00
			34.1		1.8985e+00		1.0000e+00
			34.15		1.8777e+00		1.0000e+00
			34.2		1.8570e+00		1.0000e+00
			34.25		1.8362e+00		1.0000e+00
			34.3		1.8155e+00		1.0000e+00
			34.35		1.7947e+00		1.0000e+00
			34.4		1.7739e+00		1.0000e+00
			34.45		1.7532e+00		1.0000e+00
			34.5		1.7324e+00		1.0000e+00
			34.55		1.7117e+00		1.0000e+00
			34.6		1.6909e+00		1.0000e+00
			34.65		1.6739e+00		1.0000e+00
			34.7		1.6569e+00		1.0000e+00
			34.75		1.6398e+00		1.0000e+00
			34.8		1.6228e+00		1.0000e+00
			34.85		1.6058e+00		1.0000e+00
			34.9		1.5887e+00		1.0000e+00
			34.95		1.5717e+00		1.0000e+00
			35.0		1.5547e+00		1.0000e+00
			35.05		1.5377e+00		1.0000e+00
			35.1		1.5206e+00		1.0000e+00
			35.15		1.5036e+00		1.0000e+00
			35.2		1.4866e+00		1.0000e+00
			35.25		1.4696e+00		1.0000e+00
			35.3		1.4525e+00		1.0000e+00
			35.35		1.4355e+00		1.0000e+00
			35.4		1.4185e+00		1.0000e+00
			35.45		1.4070e+00		1.0000e+00
			35.5		1.3955e+00		1.0000e+00
			35.55		1.3840e+00		1.0000e+00
			35.6		1.3725e+00		1.0000e+00
			35.65		1.3610e+00		1.0000e+00
			35.7		1.3495e+00		1.0000e+00
			35.75		1.3380e+00		1.0000e+00
			35.8		1.3265e+00		1.0000e+00
			35.85		1.3150e+00		1.0000e+00
			35.9		1.3035e+00		1.0000e+00
			35.95		1.2921e+00		1.0000e+00
			36.0		1.2806e+00		1.0000e+00
			36.05		1.2691e+00		1.0000e+00
			36.1		1.2576e+00		1.0000e+00
			36.15		1.2461e+00		1.0000e+00
			36.2		1.2346e+00		1.0000e+00
			36.25		1.2256e+00		1.0000e+00
			36.3		1.2166e+00		1.0000e+00
			36.35		1.2076e+00		1.0000e+00
			36.4		1.1986e+00		1.0000e+00
			36.45		1.1896e+00		1.0000e+00
			36.5		1.1806e+00		1.0000e+00
			36.55		1.1716e+00		1.0000e+00
			36.6		1.1626e+00		1.0000e+00
			36.65		1.1536e+00		1.0000e+00
			36.7		1.1446e+00		1.0000e+00
			36.75		1.1356e+00		1.0000e+00
			36.8		1.1266e+00		1.0000e+00
			36.85		1.1176e+00		1.0000e+00
			36.9		1.1086e+00		1.0000e+00
			36.95		1.0996e+00		1.0000e+00
			37.0		1.0906e+00		1.0000e+00
			37.05		1.0796e+00		1.0000e+00
			37.1		1.0686e+00		1.0000e+00
			37.15		1.0575e+00		1.0000e+00
			37.2		1.0465e+00		1.0000e+00
			37.25		1.0355e+00		1.0000e+00
			37.3		1.0245e+00		1.0000e+00
			37.35		1.0134e+00		1.0000e+00
			37.4		1.0024e+00		1.0000e+00
			37.45		9.9138e-01		1.0000e+00
			37.5		9.8036e-01		1.0000e+00
			37.55		9.6934e-01		1.0000e+00
			37.6		9.5833e-01		1.0000e+00
			37.65		9.4731e-01		1.0000e+00
			37.7		9.3630e-01		1.0000e+00
			37.75		9.2528e-01		1.0000e+00
			37.8		9.1427e-01		1.0000e+00
			37.85		8.6442e-01		1.0000e+00
			37.9		8.1457e-01		1.0000e+00
			37.95		7.6472e-01		1.0000e+00
			38.0		7.1488e-01		1.0000e+00
			38.05		6.6506e-01		1.0000e+00
			38.1		6.1524e-01		1.0000e+00
			38.15		5.6542e-01		1.0000e+00
			38.2		5.1560e-01		1.0000e+00
			38.25		4.6576e-01		1.0000e+00
			38.3		4.1592e-01		1.0000e+00
			38.35		3.6609e-01		1.0000e+00
			38.4		3.1625e-01		1.0000e+00
			38.45		2.6636e-01		1.0000e+00
			38.5		2.1647e-01		1.0000e+00
			38.55		1.6658e-01		1.0000e+00
			38.6		1.1670e-01		1.0000e+00
			38.65		1.1576e-01		1.0000e+00
			38.7		1.1483e-01		1.0000e+00
			38.75		1.1390e-01		1.0000e+00
			38.8		1.1297e-01		1.0000e+00
			38.85		1.0914e-01		1.0000e+00
			38.9		1.0531e-01		1.0000e+00
			38.95		1.0148e-01		1.0000e+00
			39.0		9.7647e-02		1.0000e+00
			39.05		9.6772e-02		1.0000e+00
			39.1		9.5897e-02		1.0000e+00
			39.15		9.5022e-02		1.0000e+00
			39.2		9.4146e-02		1.0000e+00
			39.25		9.0876e-02		1.0000e+00
			39.3		8.7606e-02		1.0000e+00
			39.35		8.4335e-02		1.0000e+00
			39.4		8.1065e-02		1.0000e+00
			39.45		8.0272e-02		1.0000e+00
			39.5		7.9479e-02		1.0000e+00
			39.55		7.8685e-02		1.0000e+00
			39.6		7.7892e-02		1.0000e+00
			39.65		7.5117e-02		1.0000e+00
