BEGIN_SCAN_DATA
	FORMAT=CC-Export V1.9                  
	FILE_CREATION_DATE=
	LAST_MODIFIED=11-Jan-2023 11:56:47
	BEGIN_SCAN  1
		TASK_NAME=RayStation Phantom Profiles & PDDs
		PROGRAM=RayStation
		COMMENT=RayStation Script Export
		MEAS_DATE=11-Jan-2023 11:56:47
		LINAC=RayStation
		MODALITY=X
		ISOCENTER=1000.00
		INPLANE_AXIS=Y
		CROSSPLANE_AXIS=X
		DEPTH_AXIS=Z
		INPLANE_AXIS_DIR=GUN_TARGET
		CROSSPLANE_AXIS_DIR=LEFT_RIGHT
		DEPTH_AXIS_DIR=UP_DOWN
		ENERGY=6.3
		NOMINAL_DMAX=20.00
		SSD=1000.0
		SCD=1000.00
		WEDGE_ANGLE=0.00
		FIELD_INPLANE=150.0
		FIELD_CROSSPLANE=100.0
		FIELD_TYPE=IRREGULAR
		GANTRY=0.00
		GANTRY_UPRIGHT_POSITION=0
		GANTRY_ROTATION=CW
		COLL_ANGLE=0.00
		REF_FIELD_DEPTH=50.00
		REF_FIELD_DEFINED=ISOCENTER
		FIELD_INPLANE=150.0
		FIELD_CROSSPLANE=100.0
		SCAN_CURVETYPE=INPLANE_PROFILE
		SCAN_DEPTH=100.0
		SCAN_OFFAXIS_INPLANE=0.00
		SCAN_OFFAXIS_CROSSPLANE=0.00
		SCAN_ANGLE=0.00
		SCAN_DIAGONAL=NOT_DIAGONAL
		SCAN_DIRECTION=NEGATIVE
		MEAS_MEDIUM=WATER
		MEAS_UNIT=cGy
		INCLINATION_ANGLE=0.00
		PRESSURE=1013.20
		TEMPERATURE=20.00
		NORM_TEMPERATURE=20.00
		CORRECTION_FACTOR=1.0000;
		BEGIN_DATA
			-5.0		1.2718e-03		1.0000e+00
			-4.95		1.2833e-03		1.0000e+00
			-4.9		1.2947e-03		1.0000e+00
			-4.85		1.3062e-03		1.0000e+00
			-4.8		1.3177e-03		1.0000e+00
			-4.75		1.3473e-03		1.0000e+00
			-4.7		1.3769e-03		1.0000e+00
			-4.65		1.4064e-03		1.0000e+00
			-4.6		1.4360e-03		1.0000e+00
			-4.55		1.4519e-03		1.0000e+00
			-4.5		1.4678e-03		1.0000e+00
			-4.45		1.4836e-03		1.0000e+00
			-4.4		1.4995e-03		1.0000e+00
			-4.35		1.5241e-03		1.0000e+00
			-4.3		1.5486e-03		1.0000e+00
			-4.25		1.5732e-03		1.0000e+00
			-4.2		1.5977e-03		1.0000e+00
			-4.15		1.6264e-03		1.0000e+00
			-4.1		1.6551e-03		1.0000e+00
			-4.05		1.6838e-03		1.0000e+00
			-4.0		1.7124e-03		1.0000e+00
			-3.95		1.7292e-03		1.0000e+00
			-3.9		1.7460e-03		1.0000e+00
			-3.85		1.7628e-03		1.0000e+00
			-3.8		1.7796e-03		1.0000e+00
			-3.75		1.8182e-03		1.0000e+00
			-3.7		1.8569e-03		1.0000e+00
			-3.65		1.8956e-03		1.0000e+00
			-3.6		1.9342e-03		1.0000e+00
			-3.55		1.9560e-03		1.0000e+00
			-3.5		1.9778e-03		1.0000e+00
			-3.45		1.9996e-03		1.0000e+00
			-3.4		2.0214e-03		1.0000e+00
			-3.35		2.0512e-03		1.0000e+00
			-3.3		2.0809e-03		1.0000e+00
			-3.25		2.1107e-03		1.0000e+00
			-3.2		2.1404e-03		1.0000e+00
			-3.15		2.1803e-03		1.0000e+00
			-3.1		2.2203e-03		1.0000e+00
			-3.05		2.2602e-03		1.0000e+00
			-3.0		2.3001e-03		1.0000e+00
			-2.95		2.3210e-03		1.0000e+00
			-2.9		2.3419e-03		1.0000e+00
			-2.85		2.3628e-03		1.0000e+00
			-2.8		2.3837e-03		1.0000e+00
			-2.75		2.4327e-03		1.0000e+00
			-2.7		2.4817e-03		1.0000e+00
			-2.65		2.5307e-03		1.0000e+00
			-2.6		2.5797e-03		1.0000e+00
			-2.55		2.6094e-03		1.0000e+00
			-2.5		2.6391e-03		1.0000e+00
			-2.45		2.6689e-03		1.0000e+00
			-2.4		2.6986e-03		1.0000e+00
			-2.35		2.7332e-03		1.0000e+00
			-2.3		2.7678e-03		1.0000e+00
			-2.25		2.8025e-03		1.0000e+00
			-2.2		2.8371e-03		1.0000e+00
			-2.15		2.8908e-03		1.0000e+00
			-2.1		2.9446e-03		1.0000e+00
			-2.05		2.9983e-03		1.0000e+00
			-2.0		3.0520e-03		1.0000e+00
			-1.95		3.0778e-03		1.0000e+00
			-1.9		3.1036e-03		1.0000e+00
			-1.85		3.1293e-03		1.0000e+00
			-1.8		3.1551e-03		1.0000e+00
			-1.75		3.2158e-03		1.0000e+00
			-1.7		3.2766e-03		1.0000e+00
			-1.65		3.3373e-03		1.0000e+00
			-1.6		3.3980e-03		1.0000e+00
			-1.55		3.4385e-03		1.0000e+00
			-1.5		3.4789e-03		1.0000e+00
			-1.45		3.5194e-03		1.0000e+00
			-1.4		3.5598e-03		1.0000e+00
			-1.35		3.6005e-03		1.0000e+00
			-1.3		3.6412e-03		1.0000e+00
			-1.25		3.6818e-03		1.0000e+00
			-1.2		3.7225e-03		1.0000e+00
			-1.15		3.7930e-03		1.0000e+00
			-1.1		3.8634e-03		1.0000e+00
			-1.05		3.9338e-03		1.0000e+00
			-1.0		4.0043e-03		1.0000e+00
			-0.95		4.0366e-03		1.0000e+00
			-0.9		4.0689e-03		1.0000e+00
			-0.85		4.1013e-03		1.0000e+00
			-0.8		4.1336e-03		1.0000e+00
			-0.75		4.2065e-03		1.0000e+00
			-0.7		4.2793e-03		1.0000e+00
			-0.65		4.3522e-03		1.0000e+00
			-0.6		4.4250e-03		1.0000e+00
			-0.55		4.4792e-03		1.0000e+00
			-0.5		4.5333e-03		1.0000e+00
			-0.45		4.5874e-03		1.0000e+00
			-0.4		4.6416e-03		1.0000e+00
			-0.35		4.6885e-03		1.0000e+00
			-0.3		4.7354e-03		1.0000e+00
			-0.25		4.7823e-03		1.0000e+00
			-0.2		4.8292e-03		1.0000e+00
			-0.15		4.9194e-03		1.0000e+00
			-0.1		5.0097e-03		1.0000e+00
			-0.05		5.0999e-03		1.0000e+00
			-0.0		5.1901e-03		1.0000e+00
			0.05		5.2316e-03		1.0000e+00
			0.1		5.2732e-03		1.0000e+00
			0.15		5.3148e-03		1.0000e+00
			0.2		5.3563e-03		1.0000e+00
			0.25		5.4414e-03		1.0000e+00
			0.3		5.5265e-03		1.0000e+00
			0.35		5.6115e-03		1.0000e+00
			0.4		5.6966e-03		1.0000e+00
			0.45		5.7696e-03		1.0000e+00
			0.5		5.8425e-03		1.0000e+00
			0.55		5.9155e-03		1.0000e+00
			0.6		5.9885e-03		1.0000e+00
			0.65		6.0416e-03		1.0000e+00
			0.7		6.0948e-03		1.0000e+00
			0.75		6.1479e-03		1.0000e+00
			0.8		6.2011e-03		1.0000e+00
			0.85		6.3143e-03		1.0000e+00
			0.9		6.4276e-03		1.0000e+00
			0.95		6.5409e-03		1.0000e+00
			1.0		6.6541e-03		1.0000e+00
			1.05		6.7067e-03		1.0000e+00
			1.1		6.7593e-03		1.0000e+00
			1.15		6.8119e-03		1.0000e+00
			1.2		6.8646e-03		1.0000e+00
			1.25		6.9626e-03		1.0000e+00
			1.3		7.0607e-03		1.0000e+00
			1.35		7.1587e-03		1.0000e+00
			1.4		7.2568e-03		1.0000e+00
			1.45		7.3532e-03		1.0000e+00
			1.5		7.4497e-03		1.0000e+00
			1.55		7.5462e-03		1.0000e+00
			1.6		7.6426e-03		1.0000e+00
			1.65		7.7040e-03		1.0000e+00
			1.7		7.7654e-03		1.0000e+00
			1.75		7.8268e-03		1.0000e+00
			1.8		7.8882e-03		1.0000e+00
			1.85		8.0269e-03		1.0000e+00
			1.9		8.1656e-03		1.0000e+00
			1.95		8.3043e-03		1.0000e+00
			2.0		8.4431e-03		1.0000e+00
			2.05		8.5109e-03		1.0000e+00
			2.1		8.5787e-03		1.0000e+00
			2.15		8.6466e-03		1.0000e+00
			2.2		8.7144e-03		1.0000e+00
			2.25		8.8239e-03		1.0000e+00
			2.3		8.9333e-03		1.0000e+00
			2.35		9.0427e-03		1.0000e+00
			2.4		9.1522e-03		1.0000e+00
			2.45		9.2767e-03		1.0000e+00
			2.5		9.4013e-03		1.0000e+00
			2.55		9.5259e-03		1.0000e+00
			2.6		9.6504e-03		1.0000e+00
			2.65		9.7195e-03		1.0000e+00
			2.7		9.7886e-03		1.0000e+00
			2.75		9.8576e-03		1.0000e+00
			2.8		9.9267e-03		1.0000e+00
			2.85		1.0093e-02		1.0000e+00
			2.9		1.0258e-02		1.0000e+00
			2.95		1.0424e-02		1.0000e+00
			3.0		1.0590e-02		1.0000e+00
			3.05		1.0672e-02		1.0000e+00
			3.1		1.0755e-02		1.0000e+00
			3.15		1.0837e-02		1.0000e+00
			3.2		1.0919e-02		1.0000e+00
			3.25		1.1035e-02		1.0000e+00
			3.3		1.1151e-02		1.0000e+00
			3.35		1.1267e-02		1.0000e+00
			3.4		1.1383e-02		1.0000e+00
			3.45		1.1537e-02		1.0000e+00
			3.5		1.1690e-02		1.0000e+00
			3.55		1.1843e-02		1.0000e+00
			3.6		1.1996e-02		1.0000e+00
			3.65		1.2070e-02		1.0000e+00
			3.7		1.2144e-02		1.0000e+00
			3.75		1.2219e-02		1.0000e+00
			3.8		1.2293e-02		1.0000e+00
			3.85		1.2479e-02		1.0000e+00
			3.9		1.2666e-02		1.0000e+00
			3.95		1.2853e-02		1.0000e+00
			4.0		1.3039e-02		1.0000e+00
			4.05		1.3144e-02		1.0000e+00
			4.1		1.3249e-02		1.0000e+00
			4.15		1.3353e-02		1.0000e+00
			4.2		1.3458e-02		1.0000e+00
			4.25		1.3585e-02		1.0000e+00
			4.3		1.3711e-02		1.0000e+00
			4.35		1.3838e-02		1.0000e+00
			4.4		1.3965e-02		1.0000e+00
			4.45		1.4157e-02		1.0000e+00
			4.5		1.4349e-02		1.0000e+00
			4.55		1.4541e-02		1.0000e+00
			4.6		1.4733e-02		1.0000e+00
			4.65		1.4823e-02		1.0000e+00
			4.7		1.4912e-02		1.0000e+00
			4.75		1.5002e-02		1.0000e+00
			4.8		1.5092e-02		1.0000e+00
			4.85		1.5305e-02		1.0000e+00
			4.9		1.5519e-02		1.0000e+00
			4.95		1.5732e-02		1.0000e+00
			5.0		1.5946e-02		1.0000e+00
			5.05		1.6080e-02		1.0000e+00
			5.1		1.6214e-02		1.0000e+00
			5.15		1.6348e-02		1.0000e+00
			5.2		1.6483e-02		1.0000e+00
			5.25		1.6616e-02		1.0000e+00
			5.3		1.6750e-02		1.0000e+00
			5.35		1.6884e-02		1.0000e+00
			5.4		1.7017e-02		1.0000e+00
			5.45		1.7253e-02		1.0000e+00
			5.5		1.7488e-02		1.0000e+00
			5.55		1.7724e-02		1.0000e+00
			5.6		1.7959e-02		1.0000e+00
			5.65		1.8062e-02		1.0000e+00
			5.7		1.8165e-02		1.0000e+00
			5.75		1.8269e-02		1.0000e+00
			5.8		1.8372e-02		1.0000e+00
			5.85		1.8605e-02		1.0000e+00
			5.9		1.8838e-02		1.0000e+00
			5.95		1.9071e-02		1.0000e+00
			6.0		1.9304e-02		1.0000e+00
			6.05		1.9473e-02		1.0000e+00
			6.1		1.9642e-02		1.0000e+00
			6.15		1.9811e-02		1.0000e+00
			6.2		1.9980e-02		1.0000e+00
			6.25		2.0120e-02		1.0000e+00
			6.3		2.0261e-02		1.0000e+00
			6.35		2.0402e-02		1.0000e+00
			6.4		2.0542e-02		1.0000e+00
			6.45		2.0822e-02		1.0000e+00
			6.5		2.1102e-02		1.0000e+00
			6.55		2.1382e-02		1.0000e+00
			6.6		2.1662e-02		1.0000e+00
			6.65		2.1780e-02		1.0000e+00
			6.7		2.1899e-02		1.0000e+00
			6.75		2.2017e-02		1.0000e+00
			6.8		2.2135e-02		1.0000e+00
			6.85		2.2384e-02		1.0000e+00
			6.9		2.2633e-02		1.0000e+00
			6.95		2.2882e-02		1.0000e+00
			7.0		2.3130e-02		1.0000e+00
			7.05		2.3338e-02		1.0000e+00
			7.1		2.3546e-02		1.0000e+00
			7.15		2.3754e-02		1.0000e+00
			7.2		2.3961e-02		1.0000e+00
			7.25		2.4106e-02		1.0000e+00
			7.3		2.4251e-02		1.0000e+00
			7.35		2.4397e-02		1.0000e+00
			7.4		2.4542e-02		1.0000e+00
			7.45		2.4864e-02		1.0000e+00
			7.5		2.5185e-02		1.0000e+00
			7.55		2.5507e-02		1.0000e+00
			7.6		2.5829e-02		1.0000e+00
			7.65		2.5966e-02		1.0000e+00
			7.7		2.6103e-02		1.0000e+00
			7.75		2.6240e-02		1.0000e+00
			7.8		2.6377e-02		1.0000e+00
			7.85		2.6638e-02		1.0000e+00
			7.9		2.6899e-02		1.0000e+00
			7.95		2.7160e-02		1.0000e+00
			8.0		2.7421e-02		1.0000e+00
			8.05		2.7674e-02		1.0000e+00
			8.1		2.7926e-02		1.0000e+00
			8.15		2.8179e-02		1.0000e+00
			8.2		2.8432e-02		1.0000e+00
			8.25		2.8580e-02		1.0000e+00
			8.3		2.8729e-02		1.0000e+00
			8.35		2.8878e-02		1.0000e+00
			8.4		2.9026e-02		1.0000e+00
			8.45		2.9388e-02		1.0000e+00
			8.5		2.9750e-02		1.0000e+00
			8.55		3.0112e-02		1.0000e+00
			8.6		3.0474e-02		1.0000e+00
			8.65		3.0630e-02		1.0000e+00
			8.7		3.0786e-02		1.0000e+00
			8.75		3.0941e-02		1.0000e+00
			8.8		3.1097e-02		1.0000e+00
			8.85		3.1367e-02		1.0000e+00
			8.9		3.1636e-02		1.0000e+00
			8.95		3.1906e-02		1.0000e+00
			9.0		3.2175e-02		1.0000e+00
			9.05		3.2468e-02		1.0000e+00
			9.1		3.2761e-02		1.0000e+00
			9.15		3.3053e-02		1.0000e+00
			9.2		3.3346e-02		1.0000e+00
			9.25		1.0290e-01		1.0000e+00
			9.3		1.7246e-01		1.0000e+00
			9.35		2.4202e-01		1.0000e+00
			9.4		3.1157e-01		1.0000e+00
			9.45		3.4656e-01		1.0000e+00
			9.5		3.8155e-01		1.0000e+00
			9.55		4.1654e-01		1.0000e+00
			9.6		4.5153e-01		1.0000e+00
			9.65		4.8656e-01		1.0000e+00
			9.7		5.2158e-01		1.0000e+00
			9.75		5.5661e-01		1.0000e+00
			9.8		5.9163e-01		1.0000e+00
			9.85		5.9785e-01		1.0000e+00
			9.9		6.0407e-01		1.0000e+00
			9.95		6.1029e-01		1.0000e+00
			10.0		6.1651e-01		1.0000e+00
			10.05		6.2273e-01		1.0000e+00
			10.1		6.2896e-01		1.0000e+00
			10.15		6.3518e-01		1.0000e+00
			10.2		6.4140e-01		1.0000e+00
			10.25		6.4763e-01		1.0000e+00
			10.3		6.5386e-01		1.0000e+00
			10.35		6.6009e-01		1.0000e+00
			10.4		6.6632e-01		1.0000e+00
			10.45		6.7255e-01		1.0000e+00
			10.5		6.7878e-01		1.0000e+00
			10.55		6.8502e-01		1.0000e+00
			10.6		6.9125e-01		1.0000e+00
			10.65		6.9915e-01		1.0000e+00
			10.7		7.0704e-01		1.0000e+00
			10.75		7.1493e-01		1.0000e+00
			10.8		7.2283e-01		1.0000e+00
			10.85		7.3073e-01		1.0000e+00
			10.9		7.3863e-01		1.0000e+00
			10.95		7.4653e-01		1.0000e+00
			11.0		7.5443e-01		1.0000e+00
			11.05		7.6234e-01		1.0000e+00
			11.1		7.7025e-01		1.0000e+00
			11.15		7.7815e-01		1.0000e+00
			11.2		7.8606e-01		1.0000e+00
			11.25		7.9397e-01		1.0000e+00
			11.3		8.0189e-01		1.0000e+00
			11.35		8.0980e-01		1.0000e+00
			11.4		8.1771e-01		1.0000e+00
			11.45		8.2702e-01		1.0000e+00
			11.5		8.3634e-01		1.0000e+00
			11.55		8.4565e-01		1.0000e+00
			11.6		8.5497e-01		1.0000e+00
			11.65		8.6429e-01		1.0000e+00
			11.7		8.7361e-01		1.0000e+00
			11.75		8.8293e-01		1.0000e+00
			11.8		8.9225e-01		1.0000e+00
			11.85		9.0157e-01		1.0000e+00
			11.9		9.1090e-01		1.0000e+00
			11.95		9.2023e-01		1.0000e+00
			12.0		9.2955e-01		1.0000e+00
			12.05		9.3889e-01		1.0000e+00
			12.1		9.4822e-01		1.0000e+00
			12.15		9.5756e-01		1.0000e+00
			12.2		9.6689e-01		1.0000e+00
			12.25		9.7711e-01		1.0000e+00
			12.3		9.8732e-01		1.0000e+00
			12.35		9.9753e-01		1.0000e+00
			12.4		1.0077e+00		1.0000e+00
			12.45		1.0180e+00		1.0000e+00
			12.5		1.0282e+00		1.0000e+00
			12.55		1.0384e+00		1.0000e+00
			12.6		1.0486e+00		1.0000e+00
			12.65		1.0589e+00		1.0000e+00
			12.7		1.0691e+00		1.0000e+00
			12.75		1.0793e+00		1.0000e+00
			12.8		1.0896e+00		1.0000e+00
			12.85		1.0998e+00		1.0000e+00
			12.9		1.1100e+00		1.0000e+00
			12.95		1.1203e+00		1.0000e+00
			13.0		1.1305e+00		1.0000e+00
			13.05		1.1437e+00		1.0000e+00
			13.1		1.1570e+00		1.0000e+00
			13.15		1.1702e+00		1.0000e+00
			13.2		1.1834e+00		1.0000e+00
			13.25		1.1967e+00		1.0000e+00
			13.3		1.2099e+00		1.0000e+00
			13.35		1.2232e+00		1.0000e+00
			13.4		1.2364e+00		1.0000e+00
			13.45		1.2497e+00		1.0000e+00
			13.5		1.2629e+00		1.0000e+00
			13.55		1.2762e+00		1.0000e+00
			13.6		1.2894e+00		1.0000e+00
			13.65		1.3027e+00		1.0000e+00
			13.7		1.3160e+00		1.0000e+00
			13.75		1.3292e+00		1.0000e+00
			13.8		1.3425e+00		1.0000e+00
			13.85		1.3733e+00		1.0000e+00
			13.9		1.4042e+00		1.0000e+00
			13.95		1.4350e+00		1.0000e+00
			14.0		1.4658e+00		1.0000e+00
			14.05		1.4967e+00		1.0000e+00
			14.1		1.5276e+00		1.0000e+00
			14.15		1.5584e+00		1.0000e+00
			14.2		1.5893e+00		1.0000e+00
			14.25		1.6202e+00		1.0000e+00
			14.3		1.6510e+00		1.0000e+00
			14.35		1.6819e+00		1.0000e+00
			14.4		1.7128e+00		1.0000e+00
			14.45		1.7437e+00		1.0000e+00
			14.5		1.7746e+00		1.0000e+00
			14.55		1.8055e+00		1.0000e+00
			14.6		1.8364e+00		1.0000e+00
			14.65		1.8699e+00		1.0000e+00
			14.7		1.9033e+00		1.0000e+00
			14.75		1.9368e+00		1.0000e+00
			14.8		1.9702e+00		1.0000e+00
			14.85		2.0037e+00		1.0000e+00
			14.9		2.0372e+00		1.0000e+00
			14.95		2.0706e+00		1.0000e+00
			15.0		2.1041e+00		1.0000e+00
			15.05		2.1376e+00		1.0000e+00
			15.1		2.1711e+00		1.0000e+00
			15.15		2.2046e+00		1.0000e+00
			15.2		2.2381e+00		1.0000e+00
			15.25		2.2716e+00		1.0000e+00
			15.3		2.3051e+00		1.0000e+00
			15.35		2.3386e+00		1.0000e+00
			15.4		2.3721e+00		1.0000e+00
			15.45		2.4098e+00		1.0000e+00
			15.5		2.4474e+00		1.0000e+00
			15.55		2.4851e+00		1.0000e+00
			15.6		2.5228e+00		1.0000e+00
			15.65		2.5605e+00		1.0000e+00
			15.7		2.5982e+00		1.0000e+00
			15.75		2.6359e+00		1.0000e+00
			15.8		2.6736e+00		1.0000e+00
			15.85		2.7113e+00		1.0000e+00
			15.9		2.7490e+00		1.0000e+00
			15.95		2.7867e+00		1.0000e+00
			16.0		2.8244e+00		1.0000e+00
			16.05		2.8622e+00		1.0000e+00
			16.1		2.8999e+00		1.0000e+00
			16.15		2.9377e+00		1.0000e+00
			16.2		2.9754e+00		1.0000e+00
			16.25		3.0248e+00		1.0000e+00
			16.3		3.0743e+00		1.0000e+00
			16.35		3.1237e+00		1.0000e+00
			16.4		3.1731e+00		1.0000e+00
			16.45		3.2226e+00		1.0000e+00
			16.5		3.2720e+00		1.0000e+00
			16.55		3.3215e+00		1.0000e+00
			16.6		3.3710e+00		1.0000e+00
			16.65		3.4204e+00		1.0000e+00
			16.7		3.4699e+00		1.0000e+00
			16.75		3.5194e+00		1.0000e+00
			16.8		3.5689e+00		1.0000e+00
			16.85		3.6184e+00		1.0000e+00
			16.9		3.6679e+00		1.0000e+00
			16.95		3.7174e+00		1.0000e+00
			17.0		3.7669e+00		1.0000e+00
			17.05		3.8254e+00		1.0000e+00
			17.1		3.8839e+00		1.0000e+00
			17.15		3.9424e+00		1.0000e+00
			17.2		4.0010e+00		1.0000e+00
			17.25		4.0595e+00		1.0000e+00
			17.3		4.1180e+00		1.0000e+00
			17.35		4.1766e+00		1.0000e+00
			17.4		4.2351e+00		1.0000e+00
			17.45		4.2937e+00		1.0000e+00
			17.5		4.3522e+00		1.0000e+00
			17.55		4.4108e+00		1.0000e+00
			17.6		4.4694e+00		1.0000e+00
			17.65		4.5279e+00		1.0000e+00
			17.7		4.5865e+00		1.0000e+00
			17.75		4.6451e+00		1.0000e+00
			17.8		4.7037e+00		1.0000e+00
			17.85		4.7896e+00		1.0000e+00
			17.9		4.8755e+00		1.0000e+00
			17.95		4.9614e+00		1.0000e+00
			18.0		5.0473e+00		1.0000e+00
			18.05		5.1332e+00		1.0000e+00
			18.1		5.2192e+00		1.0000e+00
			18.15		5.3051e+00		1.0000e+00
			18.2		5.3911e+00		1.0000e+00
			18.25		5.4775e+00		1.0000e+00
			18.3		5.5638e+00		1.0000e+00
			18.35		5.6502e+00		1.0000e+00
			18.4		5.7366e+00		1.0000e+00
			18.45		5.8231e+00		1.0000e+00
			18.5		5.9095e+00		1.0000e+00
			18.55		5.9959e+00		1.0000e+00
			18.6		6.0823e+00		1.0000e+00
			18.65		6.2732e+00		1.0000e+00
			18.7		6.4640e+00		1.0000e+00
			18.75		6.6548e+00		1.0000e+00
			18.8		6.8456e+00		1.0000e+00
			18.85		7.0374e+00		1.0000e+00
			18.9		7.2292e+00		1.0000e+00
			18.95		7.4210e+00		1.0000e+00
			19.0		7.6128e+00		1.0000e+00
			19.05		8.0620e+00		1.0000e+00
			19.1		8.5112e+00		1.0000e+00
			19.15		8.9604e+00		1.0000e+00
			19.2		9.4096e+00		1.0000e+00
			19.25		1.0901e+01		1.0000e+00
			19.3		1.2392e+01		1.0000e+00
			19.35		1.3883e+01		1.0000e+00
			19.4		1.5374e+01		1.0000e+00
			19.45		2.0112e+01		1.0000e+00
			19.5		2.4851e+01		1.0000e+00
			19.55		2.9589e+01		1.0000e+00
			19.6		3.4327e+01		1.0000e+00
			19.65		3.6914e+01		1.0000e+00
			19.7		3.9502e+01		1.0000e+00
			19.75		4.2090e+01		1.0000e+00
			19.8		4.4677e+01		1.0000e+00
			19.85		4.5440e+01		1.0000e+00
			19.9		4.6203e+01		1.0000e+00
			19.95		4.6966e+01		1.0000e+00
			20.0		4.7729e+01		1.0000e+00
			20.05		4.8046e+01		1.0000e+00
			20.1		4.8363e+01		1.0000e+00
			20.15		4.8681e+01		1.0000e+00
			20.2		4.8998e+01		1.0000e+00
			20.25		4.9168e+01		1.0000e+00
			20.3		4.9338e+01		1.0000e+00
			20.35		4.9508e+01		1.0000e+00
			20.4		4.9678e+01		1.0000e+00
			20.45		4.9809e+01		1.0000e+00
			20.5		4.9940e+01		1.0000e+00
			20.55		5.0072e+01		1.0000e+00
			20.6		5.0203e+01		1.0000e+00
			20.65		5.0301e+01		1.0000e+00
			20.7		5.0399e+01		1.0000e+00
			20.75		5.0497e+01		1.0000e+00
			20.8		5.0594e+01		1.0000e+00
			20.85		5.0688e+01		1.0000e+00
			20.9		5.0782e+01		1.0000e+00
			20.95		5.0876e+01		1.0000e+00
			21.0		5.0969e+01		1.0000e+00
			21.05		5.1021e+01		1.0000e+00
			21.1		5.1072e+01		1.0000e+00
			21.15		5.1124e+01		1.0000e+00
			21.2		5.1175e+01		1.0000e+00
			21.25		5.1227e+01		1.0000e+00
			21.3		5.1278e+01		1.0000e+00
			21.35		5.1329e+01		1.0000e+00
			21.4		5.1381e+01		1.0000e+00
			21.45		5.1432e+01		1.0000e+00
			21.5		5.1483e+01		1.0000e+00
			21.55		5.1535e+01		1.0000e+00
			21.6		5.1586e+01		1.0000e+00
			21.65		5.1637e+01		1.0000e+00
			21.7		5.1688e+01		1.0000e+00
			21.75		5.1740e+01		1.0000e+00
			21.8		5.1791e+01		1.0000e+00
			21.85		5.1817e+01		1.0000e+00
			21.9		5.1842e+01		1.0000e+00
			21.95		5.1868e+01		1.0000e+00
			22.0		5.1894e+01		1.0000e+00
			22.05		5.1919e+01		1.0000e+00
			22.1		5.1945e+01		1.0000e+00
			22.15		5.1971e+01		1.0000e+00
			22.2		5.1996e+01		1.0000e+00
			22.25		5.2022e+01		1.0000e+00
			22.3		5.2048e+01		1.0000e+00
			22.35		5.2073e+01		1.0000e+00
			22.4		5.2099e+01		1.0000e+00
			22.45		5.2124e+01		1.0000e+00
			22.5		5.2150e+01		1.0000e+00
			22.55		5.2175e+01		1.0000e+00
			22.6		5.2201e+01		1.0000e+00
			22.65		5.2218e+01		1.0000e+00
			22.7		5.2235e+01		1.0000e+00
			22.75		5.2252e+01		1.0000e+00
			22.8		5.2269e+01		1.0000e+00
			22.85		5.2287e+01		1.0000e+00
			22.9		5.2304e+01		1.0000e+00
			22.95		5.2321e+01		1.0000e+00
			23.0		5.2338e+01		1.0000e+00
			23.05		5.2355e+01		1.0000e+00
			23.1		5.2372e+01		1.0000e+00
			23.15		5.2389e+01		1.0000e+00
			23.2		5.2406e+01		1.0000e+00
			23.25		5.2423e+01		1.0000e+00
			23.3		5.2440e+01		1.0000e+00
			23.35		5.2457e+01		1.0000e+00
			23.4		5.2474e+01		1.0000e+00
			23.45		5.2480e+01		1.0000e+00
			23.5		5.2487e+01		1.0000e+00
			23.55		5.2493e+01		1.0000e+00
			23.6		5.2500e+01		1.0000e+00
			23.65		5.2506e+01		1.0000e+00
			23.7		5.2513e+01		1.0000e+00
			23.75		5.2520e+01		1.0000e+00
			23.8		5.2526e+01		1.0000e+00
			23.85		5.2532e+01		1.0000e+00
			23.9		5.2539e+01		1.0000e+00
			23.95		5.2545e+01		1.0000e+00
			24.0		5.2552e+01		1.0000e+00
			24.05		5.2558e+01		1.0000e+00
			24.1		5.2564e+01		1.0000e+00
			24.15		5.2571e+01		1.0000e+00
			24.2		5.2577e+01		1.0000e+00
			24.25		5.2577e+01		1.0000e+00
			24.3		5.2578e+01		1.0000e+00
			24.35		5.2578e+01		1.0000e+00
			24.4		5.2578e+01		1.0000e+00
			24.45		5.2578e+01		1.0000e+00
			24.5		5.2579e+01		1.0000e+00
			24.55		5.2579e+01		1.0000e+00
			24.6		5.2579e+01		1.0000e+00
			24.65		5.2579e+01		1.0000e+00
			24.7		5.2579e+01		1.0000e+00
			24.75		5.2579e+01		1.0000e+00
			24.8		5.2579e+01		1.0000e+00
			24.85		5.2579e+01		1.0000e+00
			24.9		5.2579e+01		1.0000e+00
			24.95		5.2579e+01		1.0000e+00
			25.0		5.2579e+01		1.0000e+00
			25.05		5.2579e+01		1.0000e+00
			25.1		5.2579e+01		1.0000e+00
			25.15		5.2579e+01		1.0000e+00
			25.2		5.2579e+01		1.0000e+00
			25.25		5.2579e+01		1.0000e+00
			25.3		5.2579e+01		1.0000e+00
			25.35		5.2579e+01		1.0000e+00
			25.4		5.2579e+01		1.0000e+00
			25.45		5.2579e+01		1.0000e+00
			25.5		5.2579e+01		1.0000e+00
			25.55		5.2579e+01		1.0000e+00
			25.6		5.2578e+01		1.0000e+00
			25.65		5.2578e+01		1.0000e+00
			25.7		5.2578e+01		1.0000e+00
			25.75		5.2578e+01		1.0000e+00
			25.8		5.2577e+01		1.0000e+00
			25.85		5.2571e+01		1.0000e+00
			25.9		5.2565e+01		1.0000e+00
			25.95		5.2559e+01		1.0000e+00
			26.0		5.2552e+01		1.0000e+00
			26.05		5.2546e+01		1.0000e+00
			26.1		5.2540e+01		1.0000e+00
			26.15		5.2533e+01		1.0000e+00
			26.2		5.2527e+01		1.0000e+00
			26.25		5.2520e+01		1.0000e+00
			26.3		5.2514e+01		1.0000e+00
			26.35		5.2507e+01		1.0000e+00
			26.4		5.2501e+01		1.0000e+00
			26.45		5.2494e+01		1.0000e+00
			26.5		5.2488e+01		1.0000e+00
			26.55		5.2481e+01		1.0000e+00
			26.6		5.2475e+01		1.0000e+00
			26.65		5.2458e+01		1.0000e+00
			26.7		5.2441e+01		1.0000e+00
			26.75		5.2424e+01		1.0000e+00
			26.8		5.2407e+01		1.0000e+00
			26.85		5.2390e+01		1.0000e+00
			26.9		5.2372e+01		1.0000e+00
			26.95		5.2355e+01		1.0000e+00
			27.0		5.2338e+01		1.0000e+00
			27.05		5.2321e+01		1.0000e+00
			27.1		5.2304e+01		1.0000e+00
			27.15		5.2287e+01		1.0000e+00
			27.2		5.2269e+01		1.0000e+00
			27.25		5.2252e+01		1.0000e+00
			27.3		5.2235e+01		1.0000e+00
			27.35		5.2218e+01		1.0000e+00
			27.4		5.2200e+01		1.0000e+00
			27.45		5.2175e+01		1.0000e+00
			27.5		5.2150e+01		1.0000e+00
			27.55		5.2125e+01		1.0000e+00
			27.6		5.2100e+01		1.0000e+00
			27.65		5.2074e+01		1.0000e+00
			27.7		5.2049e+01		1.0000e+00
			27.75		5.2024e+01		1.0000e+00
			27.8		5.1998e+01		1.0000e+00
			27.85		5.1973e+01		1.0000e+00
			27.9		5.1948e+01		1.0000e+00
			27.95		5.1922e+01		1.0000e+00
			28.0		5.1897e+01		1.0000e+00
			28.05		5.1871e+01		1.0000e+00
			28.1		5.1846e+01		1.0000e+00
			28.15		5.1821e+01		1.0000e+00
			28.2		5.1795e+01		1.0000e+00
			28.25		5.1744e+01		1.0000e+00
			28.3		5.1692e+01		1.0000e+00
			28.35		5.1641e+01		1.0000e+00
			28.4		5.1589e+01		1.0000e+00
			28.45		5.1538e+01		1.0000e+00
			28.5		5.1486e+01		1.0000e+00
			28.55		5.1434e+01		1.0000e+00
			28.6		5.1383e+01		1.0000e+00
			28.65		5.1328e+01		1.0000e+00
			28.7		5.1273e+01		1.0000e+00
			28.75		5.1218e+01		1.0000e+00
			28.8		5.1162e+01		1.0000e+00
			28.85		5.1107e+01		1.0000e+00
			28.9		5.1052e+01		1.0000e+00
			28.95		5.0997e+01		1.0000e+00
			29.0		5.0942e+01		1.0000e+00
			29.05		5.0851e+01		1.0000e+00
			29.1		5.0761e+01		1.0000e+00
			29.15		5.0670e+01		1.0000e+00
			29.2		5.0579e+01		1.0000e+00
			29.25		5.0485e+01		1.0000e+00
			29.3		5.0391e+01		1.0000e+00
			29.35		5.0297e+01		1.0000e+00
			29.4		5.0203e+01		1.0000e+00
			29.45		5.0072e+01		1.0000e+00
			29.5		4.9941e+01		1.0000e+00
			29.55		4.9809e+01		1.0000e+00
			29.6		4.9678e+01		1.0000e+00
			29.65		4.9508e+01		1.0000e+00
			29.7		4.9338e+01		1.0000e+00
			29.75		4.9167e+01		1.0000e+00
			29.8		4.8997e+01		1.0000e+00
			29.85		4.8680e+01		1.0000e+00
			29.9		4.8362e+01		1.0000e+00
			29.95		4.8045e+01		1.0000e+00
			30.0		4.7728e+01		1.0000e+00
			30.05		4.6965e+01		1.0000e+00
			30.1		4.6202e+01		1.0000e+00
			30.15		4.5440e+01		1.0000e+00
			30.2		4.4677e+01		1.0000e+00
			30.25		4.2089e+01		1.0000e+00
			30.3		3.9502e+01		1.0000e+00
			30.35		3.6914e+01		1.0000e+00
			30.4		3.4326e+01		1.0000e+00
			30.45		2.9590e+01		1.0000e+00
			30.5		2.4855e+01		1.0000e+00
			30.55		2.0119e+01		1.0000e+00
			30.6		1.5383e+01		1.0000e+00
			30.65		1.3890e+01		1.0000e+00
			30.7		1.2397e+01		1.0000e+00
			30.75		1.0904e+01		1.0000e+00
			30.8		9.4105e+00		1.0000e+00
			30.85		8.9603e+00		1.0000e+00
			30.9		8.5101e+00		1.0000e+00
			30.95		8.0598e+00		1.0000e+00
			31.0		7.6096e+00		1.0000e+00
			31.05		7.4182e+00		1.0000e+00
			31.1		7.2268e+00		1.0000e+00
			31.15		7.0355e+00		1.0000e+00
			31.2		6.8441e+00		1.0000e+00
			31.25		6.6528e+00		1.0000e+00
			31.3		6.4614e+00		1.0000e+00
			31.35		6.2701e+00		1.0000e+00
			31.4		6.0788e+00		1.0000e+00
			31.45		5.9928e+00		1.0000e+00
			31.5		5.9068e+00		1.0000e+00
			31.55		5.8209e+00		1.0000e+00
			31.6		5.7349e+00		1.0000e+00
			31.65		5.6489e+00		1.0000e+00
			31.7		5.5630e+00		1.0000e+00
			31.75		5.4770e+00		1.0000e+00
			31.8		5.3910e+00		1.0000e+00
			31.85		5.3051e+00		1.0000e+00
			31.9		5.2192e+00		1.0000e+00
			31.95		5.1332e+00		1.0000e+00
			32.0		5.0473e+00		1.0000e+00
			32.05		4.9614e+00		1.0000e+00
			32.1		4.8755e+00		1.0000e+00
			32.15		4.7896e+00		1.0000e+00
			32.2		4.7037e+00		1.0000e+00
			32.25		4.6451e+00		1.0000e+00
			32.3		4.5866e+00		1.0000e+00
			32.35		4.5280e+00		1.0000e+00
			32.4		4.4694e+00		1.0000e+00
			32.45		4.4108e+00		1.0000e+00
			32.5		4.3522e+00		1.0000e+00
			32.55		4.2937e+00		1.0000e+00
			32.6		4.2351e+00		1.0000e+00
			32.65		4.1765e+00		1.0000e+00
			32.7		4.1180e+00		1.0000e+00
			32.75		4.0594e+00		1.0000e+00
			32.8		4.0009e+00		1.0000e+00
			32.85		3.9424e+00		1.0000e+00
			32.9		3.8839e+00		1.0000e+00
			32.95		3.8253e+00		1.0000e+00
			33.0		3.7668e+00		1.0000e+00
			33.05		3.7173e+00		1.0000e+00
			33.1		3.6678e+00		1.0000e+00
			33.15		3.6183e+00		1.0000e+00
			33.2		3.5688e+00		1.0000e+00
			33.25		3.5194e+00		1.0000e+00
			33.3		3.4699e+00		1.0000e+00
			33.35		3.4204e+00		1.0000e+00
			33.4		3.3709e+00		1.0000e+00
			33.45		3.3215e+00		1.0000e+00
			33.5		3.2720e+00		1.0000e+00
			33.55		3.2226e+00		1.0000e+00
			33.6		3.1731e+00		1.0000e+00
			33.65		3.1237e+00		1.0000e+00
			33.7		3.0743e+00		1.0000e+00
			33.75		3.0248e+00		1.0000e+00
			33.8		2.9754e+00		1.0000e+00
			33.85		2.9377e+00		1.0000e+00
			33.9		2.8999e+00		1.0000e+00
			33.95		2.8622e+00		1.0000e+00
			34.0		2.8244e+00		1.0000e+00
			34.05		2.7867e+00		1.0000e+00
			34.1		2.7490e+00		1.0000e+00
			34.15		2.7113e+00		1.0000e+00
			34.2		2.6736e+00		1.0000e+00
			34.25		2.6359e+00		1.0000e+00
			34.3		2.5982e+00		1.0000e+00
			34.35		2.5605e+00		1.0000e+00
			34.4		2.5228e+00		1.0000e+00
			34.45		2.4851e+00		1.0000e+00
			34.5		2.4474e+00		1.0000e+00
			34.55		2.4097e+00		1.0000e+00
			34.6		2.3721e+00		1.0000e+00
			34.65		2.3386e+00		1.0000e+00
			34.7		2.3051e+00		1.0000e+00
			34.75		2.2716e+00		1.0000e+00
			34.8		2.2381e+00		1.0000e+00
			34.85		2.2046e+00		1.0000e+00
			34.9		2.1711e+00		1.0000e+00
			34.95		2.1376e+00		1.0000e+00
			35.0		2.1041e+00		1.0000e+00
			35.05		2.0706e+00		1.0000e+00
			35.1		2.0372e+00		1.0000e+00
			35.15		2.0037e+00		1.0000e+00
			35.2		1.9702e+00		1.0000e+00
			35.25		1.9368e+00		1.0000e+00
			35.3		1.9033e+00		1.0000e+00
			35.35		1.8699e+00		1.0000e+00
			35.4		1.8364e+00		1.0000e+00
			35.45		1.8055e+00		1.0000e+00
			35.5		1.7746e+00		1.0000e+00
			35.55		1.7437e+00		1.0000e+00
			35.6		1.7128e+00		1.0000e+00
			35.65		1.6820e+00		1.0000e+00
			35.7		1.6511e+00		1.0000e+00
			35.75		1.6202e+00		1.0000e+00
			35.8		1.5893e+00		1.0000e+00
			35.85		1.5585e+00		1.0000e+00
			35.9		1.5276e+00		1.0000e+00
			35.95		1.4967e+00		1.0000e+00
			36.0		1.4659e+00		1.0000e+00
			36.05		1.4350e+00		1.0000e+00
			36.1		1.4042e+00		1.0000e+00
			36.15		1.3734e+00		1.0000e+00
			36.2		1.3425e+00		1.0000e+00
			36.25		1.3293e+00		1.0000e+00
			36.3		1.3160e+00		1.0000e+00
			36.35		1.3027e+00		1.0000e+00
			36.4		1.2895e+00		1.0000e+00
			36.45		1.2762e+00		1.0000e+00
			36.5		1.2630e+00		1.0000e+00
			36.55		1.2497e+00		1.0000e+00
			36.6		1.2364e+00		1.0000e+00
			36.65		1.2232e+00		1.0000e+00
			36.7		1.2099e+00		1.0000e+00
			36.75		1.1967e+00		1.0000e+00
			36.8		1.1835e+00		1.0000e+00
			36.85		1.1702e+00		1.0000e+00
			36.9		1.1570e+00		1.0000e+00
			36.95		1.1437e+00		1.0000e+00
			37.0		1.1305e+00		1.0000e+00
			37.05		1.1203e+00		1.0000e+00
			37.1		1.1100e+00		1.0000e+00
			37.15		1.0998e+00		1.0000e+00
			37.2		1.0895e+00		1.0000e+00
			37.25		1.0793e+00		1.0000e+00
			37.3		1.0691e+00		1.0000e+00
			37.35		1.0589e+00		1.0000e+00
			37.4		1.0486e+00		1.0000e+00
			37.45		1.0384e+00		1.0000e+00
			37.5		1.0282e+00		1.0000e+00
			37.55		1.0180e+00		1.0000e+00
			37.6		1.0077e+00		1.0000e+00
			37.65		9.9753e-01		1.0000e+00
			37.7		9.8732e-01		1.0000e+00
			37.75		9.7710e-01		1.0000e+00
			37.8		9.6689e-01		1.0000e+00
			37.85		9.5755e-01		1.0000e+00
			37.9		9.4822e-01		1.0000e+00
			37.95		9.3889e-01		1.0000e+00
			38.0		9.2955e-01		1.0000e+00
			38.05		9.2023e-01		1.0000e+00
			38.1		9.1090e-01		1.0000e+00
			38.15		9.0157e-01		1.0000e+00
			38.2		8.9225e-01		1.0000e+00
			38.25		8.8293e-01		1.0000e+00
			38.3		8.7361e-01		1.0000e+00
			38.35		8.6429e-01		1.0000e+00
			38.4		8.5497e-01		1.0000e+00
			38.45		8.4565e-01		1.0000e+00
			38.5		8.3634e-01		1.0000e+00
			38.55		8.2702e-01		1.0000e+00
			38.6		8.1771e-01		1.0000e+00
			38.65		8.0980e-01		1.0000e+00
			38.7		8.0188e-01		1.0000e+00
			38.75		7.9397e-01		1.0000e+00
			38.8		7.8606e-01		1.0000e+00
			38.85		7.7815e-01		1.0000e+00
			38.9		7.7025e-01		1.0000e+00
			38.95		7.6234e-01		1.0000e+00
			39.0		7.5443e-01		1.0000e+00
			39.05		7.4653e-01		1.0000e+00
			39.1		7.3863e-01		1.0000e+00
			39.15		7.3073e-01		1.0000e+00
			39.2		7.2283e-01		1.0000e+00
			39.25		7.1493e-01		1.0000e+00
			39.3		7.0704e-01		1.0000e+00
			39.35		6.9914e-01		1.0000e+00
			39.4		6.9125e-01		1.0000e+00
			39.45		6.8501e-01		1.0000e+00
			39.5		6.7878e-01		1.0000e+00
			39.55		6.7255e-01		1.0000e+00
			39.6		6.6631e-01		1.0000e+00
			39.65		6.6008e-01		1.0000e+00
