BEGIN_SCAN_DATA
	FORMAT=CC-Export V1.9                  
	FILE_CREATION_DATE=
	LAST_MODIFIED=11-Jan-2023 11:56:47
	BEGIN_SCAN  1
		TASK_NAME=RayStation Phantom Profiles & PDDs
		PROGRAM=RayStation
		COMMENT=RayStation Script Export
		MEAS_DATE=11-Jan-2023 11:56:47
		LINAC=RayStation
		MODALITY=X
		ISOCENTER=1000.00
		INPLANE_AXIS=Y
		CROSSPLANE_AXIS=X
		DEPTH_AXIS=Z
		INPLANE_AXIS_DIR=GUN_TARGET
		CROSSPLANE_AXIS_DIR=LEFT_RIGHT
		DEPTH_AXIS_DIR=UP_DOWN
		ENERGY=6.3
		NOMINAL_DMAX=20.00
		SSD=1000.0
		SCD=1000.00
		WEDGE_ANGLE=0.00
		FIELD_INPLANE=150.0
		FIELD_CROSSPLANE=100.0
		FIELD_TYPE=IRREGULAR
		GANTRY=0.00
		GANTRY_UPRIGHT_POSITION=0
		GANTRY_ROTATION=CW
		COLL_ANGLE=0.00
		REF_FIELD_DEPTH=50.00
		REF_FIELD_DEFINED=ISOCENTER
		FIELD_INPLANE=150.0
		FIELD_CROSSPLANE=100.0
		SCAN_CURVETYPE=CROSSPLANE_PROFILE
		SCAN_DEPTH=200.0
		SCAN_OFFAXIS_INPLANE=0.00
		SCAN_OFFAXIS_CROSSPLANE=0.00
		SCAN_ANGLE=0.00
		SCAN_DIAGONAL=NOT_DIAGONAL
		SCAN_DIRECTION=NEGATIVE
		MEAS_MEDIUM=WATER
		MEAS_UNIT=cGy
		INCLINATION_ANGLE=0.00
		PRESSURE=1013.20
		TEMPERATURE=20.00
		NORM_TEMPERATURE=20.00
		CORRECTION_FACTOR=1.0000;
		BEGIN_DATA
			-30.05		1.5029e-04		1.0000e+00
			-30.0		2.2543e-04		1.0000e+00
			-29.95		3.0057e-04		1.0000e+00
			-29.9		3.1290e-04		1.0000e+00
			-29.85		3.2522e-04		1.0000e+00
			-29.8		3.3755e-04		1.0000e+00
			-29.75		3.4988e-04		1.0000e+00
			-29.7		3.6255e-04		1.0000e+00
			-29.65		3.7521e-04		1.0000e+00
			-29.6		3.8788e-04		1.0000e+00
			-29.55		4.0055e-04		1.0000e+00
			-29.5		4.1275e-04		1.0000e+00
			-29.45		4.2496e-04		1.0000e+00
			-29.4		4.3716e-04		1.0000e+00
			-29.35		4.4936e-04		1.0000e+00
			-29.3		4.6294e-04		1.0000e+00
			-29.25		4.7652e-04		1.0000e+00
			-29.2		4.9010e-04		1.0000e+00
			-29.15		5.0368e-04		1.0000e+00
			-29.1		5.1555e-04		1.0000e+00
			-29.05		5.2741e-04		1.0000e+00
			-29.0		5.3928e-04		1.0000e+00
			-28.95		5.5115e-04		1.0000e+00
			-28.9		5.6062e-04		1.0000e+00
			-28.85		5.7008e-04		1.0000e+00
			-28.8		5.7955e-04		1.0000e+00
			-28.75		5.8902e-04		1.0000e+00
			-28.7		5.9192e-04		1.0000e+00
			-28.65		5.9482e-04		1.0000e+00
			-28.6		5.9772e-04		1.0000e+00
			-28.55		6.0063e-04		1.0000e+00
			-28.5		6.0566e-04		1.0000e+00
			-28.45		6.1069e-04		1.0000e+00
			-28.4		6.1572e-04		1.0000e+00
			-28.35		6.2075e-04		1.0000e+00
			-28.3		6.2437e-04		1.0000e+00
			-28.25		6.2800e-04		1.0000e+00
			-28.2		6.3162e-04		1.0000e+00
			-28.15		6.3525e-04		1.0000e+00
			-28.1		6.4001e-04		1.0000e+00
			-28.05		6.4478e-04		1.0000e+00
			-28.0		6.4955e-04		1.0000e+00
			-27.95		6.5431e-04		1.0000e+00
			-27.9		6.5993e-04		1.0000e+00
			-27.85		6.6554e-04		1.0000e+00
			-27.8		6.7116e-04		1.0000e+00
			-27.75		6.7677e-04		1.0000e+00
			-27.7		6.8071e-04		1.0000e+00
			-27.65		6.8465e-04		1.0000e+00
			-27.6		6.8858e-04		1.0000e+00
			-27.55		6.9252e-04		1.0000e+00
			-27.5		6.9983e-04		1.0000e+00
			-27.45		7.0714e-04		1.0000e+00
			-27.4		7.1444e-04		1.0000e+00
			-27.35		7.2175e-04		1.0000e+00
			-27.3		7.2491e-04		1.0000e+00
			-27.25		7.2806e-04		1.0000e+00
			-27.2		7.3122e-04		1.0000e+00
			-27.15		7.3438e-04		1.0000e+00
			-27.1		7.4416e-04		1.0000e+00
			-27.05		7.5394e-04		1.0000e+00
			-27.0		7.6372e-04		1.0000e+00
			-26.95		7.7350e-04		1.0000e+00
			-26.9		7.7753e-04		1.0000e+00
			-26.85		7.8157e-04		1.0000e+00
			-26.8		7.8560e-04		1.0000e+00
			-26.75		7.8963e-04		1.0000e+00
			-26.7		8.0062e-04		1.0000e+00
			-26.65		8.1160e-04		1.0000e+00
			-26.6		8.2259e-04		1.0000e+00
			-26.55		8.3357e-04		1.0000e+00
			-26.5		8.4089e-04		1.0000e+00
			-26.45		8.4821e-04		1.0000e+00
			-26.4		8.5553e-04		1.0000e+00
			-26.35		8.6285e-04		1.0000e+00
			-26.3		8.7374e-04		1.0000e+00
			-26.25		8.8463e-04		1.0000e+00
			-26.2		8.9552e-04		1.0000e+00
			-26.15		9.0641e-04		1.0000e+00
			-26.1		9.2009e-04		1.0000e+00
			-26.05		9.3377e-04		1.0000e+00
			-26.0		9.4745e-04		1.0000e+00
			-25.95		9.6112e-04		1.0000e+00
			-25.9		9.7053e-04		1.0000e+00
			-25.85		9.7994e-04		1.0000e+00
			-25.8		9.8935e-04		1.0000e+00
			-25.75		9.9876e-04		1.0000e+00
			-25.7		1.0211e-03		1.0000e+00
			-25.65		1.0435e-03		1.0000e+00
			-25.6		1.0659e-03		1.0000e+00
			-25.55		1.0882e-03		1.0000e+00
			-25.5		1.0970e-03		1.0000e+00
			-25.45		1.1057e-03		1.0000e+00
			-25.4		1.1145e-03		1.0000e+00
			-25.35		1.1232e-03		1.0000e+00
			-25.3		1.1545e-03		1.0000e+00
			-25.25		1.1857e-03		1.0000e+00
			-25.2		1.2169e-03		1.0000e+00
			-25.15		1.2481e-03		1.0000e+00
			-25.1		1.2604e-03		1.0000e+00
			-25.05		1.2727e-03		1.0000e+00
			-25.0		1.2850e-03		1.0000e+00
			-24.95		1.2972e-03		1.0000e+00
			-24.9		1.3332e-03		1.0000e+00
			-24.85		1.3692e-03		1.0000e+00
			-24.8		1.4051e-03		1.0000e+00
			-24.75		1.4411e-03		1.0000e+00
			-24.7		1.4648e-03		1.0000e+00
			-24.65		1.4886e-03		1.0000e+00
			-24.6		1.5123e-03		1.0000e+00
			-24.55		1.5360e-03		1.0000e+00
			-24.5		1.5718e-03		1.0000e+00
			-24.45		1.6075e-03		1.0000e+00
			-24.4		1.6432e-03		1.0000e+00
			-24.35		1.6789e-03		1.0000e+00
			-24.3		1.7251e-03		1.0000e+00
			-24.25		1.7712e-03		1.0000e+00
			-24.2		1.8173e-03		1.0000e+00
			-24.15		1.8634e-03		1.0000e+00
			-24.1		1.8940e-03		1.0000e+00
			-24.05		1.9245e-03		1.0000e+00
			-24.0		1.9550e-03		1.0000e+00
			-23.95		1.9855e-03		1.0000e+00
			-23.9		2.0625e-03		1.0000e+00
			-23.85		2.1395e-03		1.0000e+00
			-23.8		2.2164e-03		1.0000e+00
			-23.75		2.2934e-03		1.0000e+00
			-23.7		2.3217e-03		1.0000e+00
			-23.65		2.3499e-03		1.0000e+00
			-23.6		2.3782e-03		1.0000e+00
			-23.55		2.4064e-03		1.0000e+00
			-23.5		2.5171e-03		1.0000e+00
			-23.45		2.6278e-03		1.0000e+00
			-23.4		2.7385e-03		1.0000e+00
			-23.35		2.8492e-03		1.0000e+00
			-23.3		2.8913e-03		1.0000e+00
			-23.25		2.9335e-03		1.0000e+00
			-23.2		2.9757e-03		1.0000e+00
			-23.15		3.0179e-03		1.0000e+00
			-23.1		3.1473e-03		1.0000e+00
			-23.05		3.2767e-03		1.0000e+00
			-23.0		3.4061e-03		1.0000e+00
			-22.95		3.5355e-03		1.0000e+00
			-22.9		3.6180e-03		1.0000e+00
			-22.85		3.7004e-03		1.0000e+00
			-22.8		3.7828e-03		1.0000e+00
			-22.75		3.8653e-03		1.0000e+00
			-22.7		3.9919e-03		1.0000e+00
			-22.65		4.1186e-03		1.0000e+00
			-22.6		4.2453e-03		1.0000e+00
			-22.55		4.3719e-03		1.0000e+00
			-22.5		4.5339e-03		1.0000e+00
			-22.45		4.6960e-03		1.0000e+00
			-22.4		4.8580e-03		1.0000e+00
			-22.35		5.0200e-03		1.0000e+00
			-22.3		5.1261e-03		1.0000e+00
			-22.25		5.2322e-03		1.0000e+00
			-22.2		5.3383e-03		1.0000e+00
			-22.15		5.4444e-03		1.0000e+00
			-22.1		5.7160e-03		1.0000e+00
			-22.05		5.9875e-03		1.0000e+00
			-22.0		6.2591e-03		1.0000e+00
			-21.95		6.5307e-03		1.0000e+00
			-21.9		6.6285e-03		1.0000e+00
			-21.85		6.7262e-03		1.0000e+00
			-21.8		6.8240e-03		1.0000e+00
			-21.75		6.9218e-03		1.0000e+00
			-21.7		7.3063e-03		1.0000e+00
			-21.65		7.6907e-03		1.0000e+00
			-21.6		8.0751e-03		1.0000e+00
			-21.55		8.4596e-03		1.0000e+00
			-21.5		8.6000e-03		1.0000e+00
			-21.45		8.7404e-03		1.0000e+00
			-21.4		8.8808e-03		1.0000e+00
			-21.35		9.0212e-03		1.0000e+00
			-21.3		9.4550e-03		1.0000e+00
			-21.25		9.8887e-03		1.0000e+00
			-21.2		1.0322e-02		1.0000e+00
			-21.15		1.0756e-02		1.0000e+00
			-21.1		1.1027e-02		1.0000e+00
			-21.05		1.1298e-02		1.0000e+00
			-21.0		1.1569e-02		1.0000e+00
			-20.95		1.1840e-02		1.0000e+00
			-20.9		1.2262e-02		1.0000e+00
			-20.85		1.2683e-02		1.0000e+00
			-20.8		1.3104e-02		1.0000e+00
			-20.75		1.3525e-02		1.0000e+00
			-20.7		1.4051e-02		1.0000e+00
			-20.65		1.4577e-02		1.0000e+00
			-20.6		1.5102e-02		1.0000e+00
			-20.55		1.5628e-02		1.0000e+00
			-20.5		1.5969e-02		1.0000e+00
			-20.45		1.6310e-02		1.0000e+00
			-20.4		1.6650e-02		1.0000e+00
			-20.35		1.6991e-02		1.0000e+00
			-20.3		1.7836e-02		1.0000e+00
			-20.25		1.8681e-02		1.0000e+00
			-20.2		1.9525e-02		1.0000e+00
			-20.15		2.0370e-02		1.0000e+00
			-20.1		2.0668e-02		1.0000e+00
			-20.05		2.0967e-02		1.0000e+00
			-20.0		2.1265e-02		1.0000e+00
			-19.95		2.1564e-02		1.0000e+00
			-19.9		2.2732e-02		1.0000e+00
			-19.85		2.3899e-02		1.0000e+00
			-19.8		2.5067e-02		1.0000e+00
			-19.75		2.6235e-02		1.0000e+00
			-19.7		2.6648e-02		1.0000e+00
			-19.65		2.7060e-02		1.0000e+00
			-19.6		2.7472e-02		1.0000e+00
			-19.55		2.7885e-02		1.0000e+00
			-19.5		2.9168e-02		1.0000e+00
			-19.45		3.0451e-02		1.0000e+00
			-19.4		3.1734e-02		1.0000e+00
			-19.35		3.3017e-02		1.0000e+00
			-19.3		3.3781e-02		1.0000e+00
			-19.25		3.4545e-02		1.0000e+00
			-19.2		3.5309e-02		1.0000e+00
			-19.15		3.6073e-02		1.0000e+00
			-19.1		3.7272e-02		1.0000e+00
			-19.05		3.8471e-02		1.0000e+00
			-19.0		3.9670e-02		1.0000e+00
			-18.95		4.0869e-02		1.0000e+00
			-18.9		4.2309e-02		1.0000e+00
			-18.85		4.3748e-02		1.0000e+00
			-18.8		4.5188e-02		1.0000e+00
			-18.75		4.6627e-02		1.0000e+00
			-18.7		4.7554e-02		1.0000e+00
			-18.65		4.8482e-02		1.0000e+00
			-18.6		4.9409e-02		1.0000e+00
			-18.55		5.0336e-02		1.0000e+00
			-18.5		5.2581e-02		1.0000e+00
			-18.45		5.4825e-02		1.0000e+00
			-18.4		5.7070e-02		1.0000e+00
			-18.35		5.9315e-02		1.0000e+00
			-18.3		6.0094e-02		1.0000e+00
			-18.25		6.0873e-02		1.0000e+00
			-18.2		6.1652e-02		1.0000e+00
			-18.15		6.2432e-02		1.0000e+00
			-18.1		6.5446e-02		1.0000e+00
			-18.05		6.8460e-02		1.0000e+00
			-18.0		7.1475e-02		1.0000e+00
			-17.95		7.4489e-02		1.0000e+00
			-17.9		7.5498e-02		1.0000e+00
			-17.85		7.6506e-02		1.0000e+00
			-17.8		7.7515e-02		1.0000e+00
			-17.75		7.8531e-02		1.0000e+00
			-17.7		1.5165e-01		1.0000e+00
			-17.65		2.2477e-01		1.0000e+00
			-17.6		2.9789e-01		1.0000e+00
			-17.55		3.7102e-01		1.0000e+00
			-17.5		4.4421e-01		1.0000e+00
			-17.45		5.1740e-01		1.0000e+00
			-17.4		5.9059e-01		1.0000e+00
			-17.35		6.6378e-01		1.0000e+00
			-17.3		6.7422e-01		1.0000e+00
			-17.25		6.8466e-01		1.0000e+00
			-17.2		6.9509e-01		1.0000e+00
			-17.15		7.0553e-01		1.0000e+00
			-17.1		7.1598e-01		1.0000e+00
			-17.05		7.2643e-01		1.0000e+00
			-17.0		7.3687e-01		1.0000e+00
			-16.95		7.4732e-01		1.0000e+00
			-16.9		7.5778e-01		1.0000e+00
			-16.85		7.6823e-01		1.0000e+00
			-16.8		7.7869e-01		1.0000e+00
			-16.75		7.8914e-01		1.0000e+00
			-16.7		7.9961e-01		1.0000e+00
			-16.65		8.1007e-01		1.0000e+00
			-16.6		8.2054e-01		1.0000e+00
			-16.55		8.3100e-01		1.0000e+00
			-16.5		8.3844e-01		1.0000e+00
			-16.45		8.4589e-01		1.0000e+00
			-16.4		8.5333e-01		1.0000e+00
			-16.35		8.6077e-01		1.0000e+00
			-16.3		8.6822e-01		1.0000e+00
			-16.25		8.7567e-01		1.0000e+00
			-16.2		8.8312e-01		1.0000e+00
			-16.15		8.9057e-01		1.0000e+00
			-16.1		8.9802e-01		1.0000e+00
			-16.05		9.0548e-01		1.0000e+00
			-16.0		9.1293e-01		1.0000e+00
			-15.95		9.2038e-01		1.0000e+00
			-15.9		9.2784e-01		1.0000e+00
			-15.85		9.3530e-01		1.0000e+00
			-15.8		9.4276e-01		1.0000e+00
			-15.75		9.5022e-01		1.0000e+00
			-15.7		9.6137e-01		1.0000e+00
			-15.65		9.7252e-01		1.0000e+00
			-15.6		9.8367e-01		1.0000e+00
			-15.55		9.9481e-01		1.0000e+00
			-15.5		1.0060e+00		1.0000e+00
			-15.45		1.0171e+00		1.0000e+00
			-15.4		1.0283e+00		1.0000e+00
			-15.35		1.0394e+00		1.0000e+00
			-15.3		1.0506e+00		1.0000e+00
			-15.25		1.0618e+00		1.0000e+00
			-15.2		1.0729e+00		1.0000e+00
			-15.15		1.0841e+00		1.0000e+00
			-15.1		1.0953e+00		1.0000e+00
			-15.05		1.1064e+00		1.0000e+00
			-15.0		1.1176e+00		1.0000e+00
			-14.95		1.1288e+00		1.0000e+00
			-14.9		1.1422e+00		1.0000e+00
			-14.85		1.1557e+00		1.0000e+00
			-14.8		1.1691e+00		1.0000e+00
			-14.75		1.1825e+00		1.0000e+00
			-14.7		1.1960e+00		1.0000e+00
			-14.65		1.2094e+00		1.0000e+00
			-14.6		1.2229e+00		1.0000e+00
			-14.55		1.2363e+00		1.0000e+00
			-14.5		1.2498e+00		1.0000e+00
			-14.45		1.2633e+00		1.0000e+00
			-14.4		1.2767e+00		1.0000e+00
			-14.35		1.2902e+00		1.0000e+00
			-14.3		1.3036e+00		1.0000e+00
			-14.25		1.3171e+00		1.0000e+00
			-14.2		1.3306e+00		1.0000e+00
			-14.15		1.3440e+00		1.0000e+00
			-14.1		1.3610e+00		1.0000e+00
			-14.05		1.3780e+00		1.0000e+00
			-14.0		1.3950e+00		1.0000e+00
			-13.95		1.4120e+00		1.0000e+00
			-13.9		1.4290e+00		1.0000e+00
			-13.85		1.4460e+00		1.0000e+00
			-13.8		1.4630e+00		1.0000e+00
			-13.75		1.4800e+00		1.0000e+00
			-13.7		1.4970e+00		1.0000e+00
			-13.65		1.5140e+00		1.0000e+00
			-13.6		1.5310e+00		1.0000e+00
			-13.55		1.5480e+00		1.0000e+00
			-13.5		1.5651e+00		1.0000e+00
			-13.45		1.5821e+00		1.0000e+00
			-13.4		1.5991e+00		1.0000e+00
			-13.35		1.6161e+00		1.0000e+00
			-13.3		1.6417e+00		1.0000e+00
			-13.25		1.6674e+00		1.0000e+00
			-13.2		1.6930e+00		1.0000e+00
			-13.15		1.7186e+00		1.0000e+00
			-13.1		1.7442e+00		1.0000e+00
			-13.05		1.7699e+00		1.0000e+00
			-13.0		1.7955e+00		1.0000e+00
			-12.95		1.8211e+00		1.0000e+00
			-12.9		1.8468e+00		1.0000e+00
			-12.85		1.8724e+00		1.0000e+00
			-12.8		1.8981e+00		1.0000e+00
			-12.75		1.9238e+00		1.0000e+00
			-12.7		1.9494e+00		1.0000e+00
			-12.65		1.9751e+00		1.0000e+00
			-12.6		2.0008e+00		1.0000e+00
			-12.55		2.0264e+00		1.0000e+00
			-12.5		2.0544e+00		1.0000e+00
			-12.45		2.0824e+00		1.0000e+00
			-12.4		2.1104e+00		1.0000e+00
			-12.35		2.1384e+00		1.0000e+00
			-12.3		2.1664e+00		1.0000e+00
			-12.25		2.1944e+00		1.0000e+00
			-12.2		2.2225e+00		1.0000e+00
			-12.15		2.2505e+00		1.0000e+00
			-12.1		2.2785e+00		1.0000e+00
			-12.05		2.3065e+00		1.0000e+00
			-12.0		2.3346e+00		1.0000e+00
			-11.95		2.3626e+00		1.0000e+00
			-11.9		2.3906e+00		1.0000e+00
			-11.85		2.4187e+00		1.0000e+00
			-11.8		2.4467e+00		1.0000e+00
			-11.75		2.4748e+00		1.0000e+00
			-11.7		2.5058e+00		1.0000e+00
			-11.65		2.5368e+00		1.0000e+00
			-11.6		2.5679e+00		1.0000e+00
			-11.55		2.5989e+00		1.0000e+00
			-11.5		2.6300e+00		1.0000e+00
			-11.45		2.6610e+00		1.0000e+00
			-11.4		2.6921e+00		1.0000e+00
			-11.35		2.7231e+00		1.0000e+00
			-11.3		2.7542e+00		1.0000e+00
			-11.25		2.7853e+00		1.0000e+00
			-11.2		2.8163e+00		1.0000e+00
			-11.15		2.8474e+00		1.0000e+00
			-11.1		2.8785e+00		1.0000e+00
			-11.05		2.9096e+00		1.0000e+00
			-11.0		2.9406e+00		1.0000e+00
			-10.95		2.9717e+00		1.0000e+00
			-10.9		3.0209e+00		1.0000e+00
			-10.85		3.0701e+00		1.0000e+00
			-10.8		3.1192e+00		1.0000e+00
			-10.75		3.1684e+00		1.0000e+00
			-10.7		3.2176e+00		1.0000e+00
			-10.65		3.2668e+00		1.0000e+00
			-10.6		3.3159e+00		1.0000e+00
			-10.55		3.3651e+00		1.0000e+00
			-10.5		3.4144e+00		1.0000e+00
			-10.45		3.4636e+00		1.0000e+00
			-10.4		3.5128e+00		1.0000e+00
			-10.35		3.5620e+00		1.0000e+00
			-10.3		3.6113e+00		1.0000e+00
			-10.25		3.6605e+00		1.0000e+00
			-10.2		3.7098e+00		1.0000e+00
			-10.15		3.7590e+00		1.0000e+00
			-10.1		3.8353e+00		1.0000e+00
			-10.05		3.9115e+00		1.0000e+00
			-10.0		3.9878e+00		1.0000e+00
			-9.95		4.0640e+00		1.0000e+00
			-9.9		4.1403e+00		1.0000e+00
			-9.85		4.2166e+00		1.0000e+00
			-9.8		4.2929e+00		1.0000e+00
			-9.75		4.3692e+00		1.0000e+00
			-9.7		4.5170e+00		1.0000e+00
			-9.65		4.6648e+00		1.0000e+00
			-9.6		4.8126e+00		1.0000e+00
			-9.55		4.9604e+00		1.0000e+00
			-9.5		5.3352e+00		1.0000e+00
			-9.45		5.7101e+00		1.0000e+00
			-9.4		6.0849e+00		1.0000e+00
			-9.35		6.4598e+00		1.0000e+00
			-9.3		7.7880e+00		1.0000e+00
			-9.25		9.1161e+00		1.0000e+00
			-9.2		1.0444e+01		1.0000e+00
			-9.15		1.1772e+01		1.0000e+00
			-9.1		1.3942e+01		1.0000e+00
			-9.05		1.6111e+01		1.0000e+00
			-9.0		1.8281e+01		1.0000e+00
			-8.95		2.0450e+01		1.0000e+00
			-8.9		2.1498e+01		1.0000e+00
			-8.85		2.2546e+01		1.0000e+00
			-8.8		2.3594e+01		1.0000e+00
			-8.75		2.4641e+01		1.0000e+00
			-8.7		2.5003e+01		1.0000e+00
			-8.65		2.5364e+01		1.0000e+00
			-8.6		2.5725e+01		1.0000e+00
			-8.55		2.6087e+01		1.0000e+00
			-8.5		2.6259e+01		1.0000e+00
			-8.45		2.6432e+01		1.0000e+00
			-8.4		2.6605e+01		1.0000e+00
			-8.35		2.6777e+01		1.0000e+00
			-8.3		2.6882e+01		1.0000e+00
			-8.25		2.6987e+01		1.0000e+00
			-8.2		2.7092e+01		1.0000e+00
			-8.15		2.7197e+01		1.0000e+00
			-8.1		2.7263e+01		1.0000e+00
			-8.05		2.7329e+01		1.0000e+00
			-8.0		2.7395e+01		1.0000e+00
			-7.95		2.7461e+01		1.0000e+00
			-7.9		2.7528e+01		1.0000e+00
			-7.85		2.7596e+01		1.0000e+00
			-7.8		2.7664e+01		1.0000e+00
			-7.75		2.7732e+01		1.0000e+00
			-7.7		2.7781e+01		1.0000e+00
			-7.65		2.7831e+01		1.0000e+00
			-7.6		2.7880e+01		1.0000e+00
			-7.55		2.7929e+01		1.0000e+00
			-7.5		2.7979e+01		1.0000e+00
			-7.45		2.8028e+01		1.0000e+00
			-7.4		2.8078e+01		1.0000e+00
			-7.35		2.8127e+01		1.0000e+00
			-7.3		2.8177e+01		1.0000e+00
			-7.25		2.8226e+01		1.0000e+00
			-7.2		2.8275e+01		1.0000e+00
			-7.15		2.8325e+01		1.0000e+00
			-7.1		2.8374e+01		1.0000e+00
			-7.05		2.8424e+01		1.0000e+00
			-7.0		2.8473e+01		1.0000e+00
			-6.95		2.8522e+01		1.0000e+00
			-6.9		2.8556e+01		1.0000e+00
			-6.85		2.8589e+01		1.0000e+00
			-6.8		2.8622e+01		1.0000e+00
			-6.75		2.8656e+01		1.0000e+00
			-6.7		2.8689e+01		1.0000e+00
			-6.65		2.8722e+01		1.0000e+00
			-6.6		2.8756e+01		1.0000e+00
			-6.55		2.8789e+01		1.0000e+00
			-6.5		2.8822e+01		1.0000e+00
			-6.45		2.8855e+01		1.0000e+00
			-6.4		2.8889e+01		1.0000e+00
			-6.35		2.8922e+01		1.0000e+00
			-6.3		2.8955e+01		1.0000e+00
			-6.25		2.8988e+01		1.0000e+00
			-6.2		2.9022e+01		1.0000e+00
			-6.15		2.9055e+01		1.0000e+00
			-6.1		2.9084e+01		1.0000e+00
			-6.05		2.9113e+01		1.0000e+00
			-6.0		2.9142e+01		1.0000e+00
			-5.95		2.9172e+01		1.0000e+00
			-5.9		2.9201e+01		1.0000e+00
			-5.85		2.9230e+01		1.0000e+00
			-5.8		2.9259e+01		1.0000e+00
			-5.75		2.9288e+01		1.0000e+00
			-5.7		2.9317e+01		1.0000e+00
			-5.65		2.9346e+01		1.0000e+00
			-5.6		2.9376e+01		1.0000e+00
			-5.55		2.9405e+01		1.0000e+00
			-5.5		2.9434e+01		1.0000e+00
			-5.45		2.9463e+01		1.0000e+00
			-5.4		2.9492e+01		1.0000e+00
			-5.35		2.9521e+01		1.0000e+00
			-5.3		2.9543e+01		1.0000e+00
			-5.25		2.9565e+01		1.0000e+00
			-5.2		2.9587e+01		1.0000e+00
			-5.15		2.9609e+01		1.0000e+00
			-5.1		2.9631e+01		1.0000e+00
			-5.05		2.9653e+01		1.0000e+00
			-5.0		2.9675e+01		1.0000e+00
			-4.95		2.9696e+01		1.0000e+00
			-4.9		2.9718e+01		1.0000e+00
			-4.85		2.9740e+01		1.0000e+00
			-4.8		2.9762e+01		1.0000e+00
			-4.75		2.9784e+01		1.0000e+00
			-4.7		2.9806e+01		1.0000e+00
			-4.65		2.9828e+01		1.0000e+00
			-4.6		2.9849e+01		1.0000e+00
			-4.55		2.9871e+01		1.0000e+00
			-4.5		2.9883e+01		1.0000e+00
			-4.45		2.9894e+01		1.0000e+00
			-4.4		2.9906e+01		1.0000e+00
			-4.35		2.9917e+01		1.0000e+00
			-4.3		2.9929e+01		1.0000e+00
			-4.25		2.9940e+01		1.0000e+00
			-4.2		2.9952e+01		1.0000e+00
			-4.15		2.9963e+01		1.0000e+00
			-4.1		2.9975e+01		1.0000e+00
			-4.05		2.9986e+01		1.0000e+00
			-4.0		2.9998e+01		1.0000e+00
			-3.95		3.0009e+01		1.0000e+00
			-3.9		3.0021e+01		1.0000e+00
			-3.85		3.0032e+01		1.0000e+00
			-3.8		3.0043e+01		1.0000e+00
			-3.75		3.0055e+01		1.0000e+00
			-3.7		3.0064e+01		1.0000e+00
			-3.65		3.0073e+01		1.0000e+00
			-3.6		3.0082e+01		1.0000e+00
			-3.55		3.0090e+01		1.0000e+00
			-3.5		3.0099e+01		1.0000e+00
			-3.45		3.0108e+01		1.0000e+00
			-3.4		3.0117e+01		1.0000e+00
			-3.35		3.0126e+01		1.0000e+00
			-3.3		3.0135e+01		1.0000e+00
			-3.25		3.0144e+01		1.0000e+00
			-3.2		3.0152e+01		1.0000e+00
			-3.15		3.0161e+01		1.0000e+00
			-3.1		3.0170e+01		1.0000e+00
			-3.05		3.0179e+01		1.0000e+00
			-3.0		3.0188e+01		1.0000e+00
			-2.95		3.0196e+01		1.0000e+00
			-2.9		3.0203e+01		1.0000e+00
			-2.85		3.0210e+01		1.0000e+00
			-2.8		3.0216e+01		1.0000e+00
			-2.75		3.0223e+01		1.0000e+00
			-2.7		3.0229e+01		1.0000e+00
			-2.65		3.0236e+01		1.0000e+00
			-2.6		3.0242e+01		1.0000e+00
			-2.55		3.0249e+01		1.0000e+00
			-2.5		3.0255e+01		1.0000e+00
			-2.45		3.0262e+01		1.0000e+00
			-2.4		3.0268e+01		1.0000e+00
			-2.35		3.0275e+01		1.0000e+00
			-2.3		3.0281e+01		1.0000e+00
			-2.25		3.0288e+01		1.0000e+00
			-2.2		3.0294e+01		1.0000e+00
			-2.15		3.0301e+01		1.0000e+00
			-2.1		3.0306e+01		1.0000e+00
			-2.05		3.0312e+01		1.0000e+00
			-2.0		3.0318e+01		1.0000e+00
			-1.95		3.0324e+01		1.0000e+00
			-1.9		3.0330e+01		1.0000e+00
			-1.85		3.0336e+01		1.0000e+00
			-1.8		3.0342e+01		1.0000e+00
			-1.75		3.0348e+01		1.0000e+00
			-1.7		3.0354e+01		1.0000e+00
			-1.65		3.0360e+01		1.0000e+00
			-1.6		3.0365e+01		1.0000e+00
			-1.55		3.0371e+01		1.0000e+00
			-1.5		3.0377e+01		1.0000e+00
			-1.45		3.0383e+01		1.0000e+00
			-1.4		3.0389e+01		1.0000e+00
			-1.35		3.0394e+01		1.0000e+00
			-1.3		3.0400e+01		1.0000e+00
			-1.25		3.0405e+01		1.0000e+00
			-1.2		3.0411e+01		1.0000e+00
			-1.15		3.0416e+01		1.0000e+00
			-1.1		3.0421e+01		1.0000e+00
			-1.05		3.0427e+01		1.0000e+00
			-1.0		3.0432e+01		1.0000e+00
			-0.95		3.0437e+01		1.0000e+00
			-0.9		3.0443e+01		1.0000e+00
			-0.85		3.0448e+01		1.0000e+00
			-0.8		3.0453e+01		1.0000e+00
			-0.75		3.0458e+01		1.0000e+00
			-0.7		3.0464e+01		1.0000e+00
			-0.65		3.0469e+01		1.0000e+00
			-0.6		3.0474e+01		1.0000e+00
			-0.55		3.0479e+01		1.0000e+00
			-0.5		3.0479e+01		1.0000e+00
			-0.45		3.0478e+01		1.0000e+00
			-0.4		3.0478e+01		1.0000e+00
			-0.35		3.0477e+01		1.0000e+00
			-0.3		3.0476e+01		1.0000e+00
			-0.25		3.0476e+01		1.0000e+00
			-0.2		3.0475e+01		1.0000e+00
			-0.15		3.0474e+01		1.0000e+00
			-0.1		3.0474e+01		1.0000e+00
			-0.05		3.0473e+01		1.0000e+00
			0.0		3.0472e+01		1.0000e+00
			0.05		3.0472e+01		1.0000e+00
			0.1		3.0471e+01		1.0000e+00
			0.15		3.0470e+01		1.0000e+00
			0.2		3.0469e+01		1.0000e+00
			0.25		3.0469e+01		1.0000e+00
			0.3		3.0466e+01		1.0000e+00
			0.35		3.0463e+01		1.0000e+00
			0.4		3.0460e+01		1.0000e+00
			0.45		3.0457e+01		1.0000e+00
			0.5		3.0454e+01		1.0000e+00
			0.55		3.0451e+01		1.0000e+00
			0.6		3.0448e+01		1.0000e+00
			0.65		3.0446e+01		1.0000e+00
			0.7		3.0443e+01		1.0000e+00
			0.75		3.0440e+01		1.0000e+00
			0.8		3.0437e+01		1.0000e+00
			0.85		3.0434e+01		1.0000e+00
			0.9		3.0431e+01		1.0000e+00
			0.95		3.0428e+01		1.0000e+00
			1.0		3.0425e+01		1.0000e+00
			1.05		3.0422e+01		1.0000e+00
			1.1		3.0416e+01		1.0000e+00
			1.15		3.0410e+01		1.0000e+00
			1.2		3.0404e+01		1.0000e+00
			1.25		3.0398e+01		1.0000e+00
			1.3		3.0392e+01		1.0000e+00
			1.35		3.0386e+01		1.0000e+00
			1.4		3.0381e+01		1.0000e+00
			1.45		3.0375e+01		1.0000e+00
			1.5		3.0369e+01		1.0000e+00
			1.55		3.0363e+01		1.0000e+00
			1.6		3.0357e+01		1.0000e+00
			1.65		3.0351e+01		1.0000e+00
			1.7		3.0345e+01		1.0000e+00
			1.75		3.0339e+01		1.0000e+00
			1.8		3.0333e+01		1.0000e+00
			1.85		3.0327e+01		1.0000e+00
			1.9		3.0319e+01		1.0000e+00
			1.95		3.0312e+01		1.0000e+00
			2.0		3.0304e+01		1.0000e+00
			2.05		3.0297e+01		1.0000e+00
			2.1		3.0289e+01		1.0000e+00
			2.15		3.0282e+01		1.0000e+00
			2.2		3.0274e+01		1.0000e+00
			2.25		3.0267e+01		1.0000e+00
			2.3		3.0259e+01		1.0000e+00
			2.35		3.0251e+01		1.0000e+00
			2.4		3.0244e+01		1.0000e+00
			2.45		3.0236e+01		1.0000e+00
			2.5		3.0228e+01		1.0000e+00
			2.55		3.0221e+01		1.0000e+00
			2.6		3.0213e+01		1.0000e+00
			2.65		3.0206e+01		1.0000e+00
			2.7		3.0198e+01		1.0000e+00
			2.75		3.0191e+01		1.0000e+00
			2.8		3.0184e+01		1.0000e+00
			2.85		3.0177e+01		1.0000e+00
			2.9		3.0170e+01		1.0000e+00
			2.95		3.0162e+01		1.0000e+00
			3.0		3.0155e+01		1.0000e+00
			3.05		3.0148e+01		1.0000e+00
			3.1		3.0141e+01		1.0000e+00
			3.15		3.0133e+01		1.0000e+00
			3.2		3.0126e+01		1.0000e+00
			3.25		3.0119e+01		1.0000e+00
			3.3		3.0112e+01		1.0000e+00
			3.35		3.0104e+01		1.0000e+00
			3.4		3.0097e+01		1.0000e+00
			3.45		3.0090e+01		1.0000e+00
			3.5		3.0080e+01		1.0000e+00
			3.55		3.0070e+01		1.0000e+00
			3.6		3.0060e+01		1.0000e+00
			3.65		3.0050e+01		1.0000e+00
			3.7		3.0041e+01		1.0000e+00
			3.75		3.0031e+01		1.0000e+00
			3.8		3.0021e+01		1.0000e+00
			3.85		3.0011e+01		1.0000e+00
			3.9		3.0001e+01		1.0000e+00
			3.95		2.9991e+01		1.0000e+00
			4.0		2.9982e+01		1.0000e+00
			4.05		2.9972e+01		1.0000e+00
			4.1		2.9962e+01		1.0000e+00
			4.15		2.9952e+01		1.0000e+00
			4.2		2.9942e+01		1.0000e+00
			4.25		2.9932e+01		1.0000e+00
			4.3		2.9913e+01		1.0000e+00
			4.35		2.9894e+01		1.0000e+00
			4.4		2.9874e+01		1.0000e+00
			4.45		2.9855e+01		1.0000e+00
			4.5		2.9836e+01		1.0000e+00
			4.55		2.9817e+01		1.0000e+00
			4.6		2.9798e+01		1.0000e+00
			4.65		2.9778e+01		1.0000e+00
			4.7		2.9759e+01		1.0000e+00
			4.75		2.9740e+01		1.0000e+00
			4.8		2.9720e+01		1.0000e+00
			4.85		2.9701e+01		1.0000e+00
			4.9		2.9682e+01		1.0000e+00
			4.95		2.9663e+01		1.0000e+00
			5.0		2.9643e+01		1.0000e+00
			5.05		2.9624e+01		1.0000e+00
			5.1		2.9597e+01		1.0000e+00
			5.15		2.9570e+01		1.0000e+00
			5.2		2.9543e+01		1.0000e+00
			5.25		2.9516e+01		1.0000e+00
			5.3		2.9488e+01		1.0000e+00
			5.35		2.9461e+01		1.0000e+00
			5.4		2.9434e+01		1.0000e+00
			5.45		2.9407e+01		1.0000e+00
			5.5		2.9380e+01		1.0000e+00
			5.55		2.9353e+01		1.0000e+00
			5.6		2.9326e+01		1.0000e+00
			5.65		2.9298e+01		1.0000e+00
			5.7		2.9271e+01		1.0000e+00
			5.75		2.9244e+01		1.0000e+00
			5.8		2.9217e+01		1.0000e+00
			5.85		2.9190e+01		1.0000e+00
			5.9		2.9157e+01		1.0000e+00
			5.95		2.9125e+01		1.0000e+00
			6.0		2.9093e+01		1.0000e+00
			6.05		2.9060e+01		1.0000e+00
			6.1		2.9028e+01		1.0000e+00
			6.15		2.8996e+01		1.0000e+00
			6.2		2.8963e+01		1.0000e+00
			6.25		2.8931e+01		1.0000e+00
			6.3		2.8899e+01		1.0000e+00
			6.35		2.8866e+01		1.0000e+00
			6.4		2.8834e+01		1.0000e+00
			6.45		2.8802e+01		1.0000e+00
			6.5		2.8769e+01		1.0000e+00
			6.55		2.8737e+01		1.0000e+00
			6.6		2.8705e+01		1.0000e+00
			6.65		2.8672e+01		1.0000e+00
			6.7		2.8626e+01		1.0000e+00
			6.75		2.8580e+01		1.0000e+00
			6.8		2.8534e+01		1.0000e+00
			6.85		2.8488e+01		1.0000e+00
			6.9		2.8442e+01		1.0000e+00
			6.95		2.8396e+01		1.0000e+00
			7.0		2.8350e+01		1.0000e+00
			7.05		2.8304e+01		1.0000e+00
			7.1		2.8258e+01		1.0000e+00
			7.15		2.8212e+01		1.0000e+00
			7.2		2.8166e+01		1.0000e+00
			7.25		2.8120e+01		1.0000e+00
			7.3		2.8074e+01		1.0000e+00
			7.35		2.8028e+01		1.0000e+00
			7.4		2.7982e+01		1.0000e+00
			7.45		2.7936e+01		1.0000e+00
			7.5		2.7863e+01		1.0000e+00
			7.55		2.7790e+01		1.0000e+00
			7.6		2.7718e+01		1.0000e+00
			7.65		2.7645e+01		1.0000e+00
			7.7		2.7573e+01		1.0000e+00
			7.75		2.7500e+01		1.0000e+00
			7.8		2.7428e+01		1.0000e+00
			7.85		2.7355e+01		1.0000e+00
			7.9		2.7316e+01		1.0000e+00
			7.95		2.7276e+01		1.0000e+00
			8.0		2.7237e+01		1.0000e+00
			8.05		2.7197e+01		1.0000e+00
			8.1		2.7092e+01		1.0000e+00
			8.15		2.6987e+01		1.0000e+00
			8.2		2.6882e+01		1.0000e+00
			8.25		2.6777e+01		1.0000e+00
			8.3		2.6605e+01		1.0000e+00
			8.35		2.6433e+01		1.0000e+00
			8.4		2.6262e+01		1.0000e+00
			8.45		2.6090e+01		1.0000e+00
			8.5		2.5728e+01		1.0000e+00
			8.55		2.5366e+01		1.0000e+00
			8.6		2.5005e+01		1.0000e+00
			8.65		2.4643e+01		1.0000e+00
			8.7		2.3595e+01		1.0000e+00
			8.75		2.2546e+01		1.0000e+00
			8.8		2.1497e+01		1.0000e+00
			8.85		2.0448e+01		1.0000e+00
			8.9		1.8279e+01		1.0000e+00
			8.95		1.6110e+01		1.0000e+00
			9.0		1.3941e+01		1.0000e+00
			9.05		1.1772e+01		1.0000e+00
			9.1		1.0444e+01		1.0000e+00
			9.15		9.1156e+00		1.0000e+00
			9.2		7.7876e+00		1.0000e+00
			9.25		6.4597e+00		1.0000e+00
			9.3		6.0851e+00		1.0000e+00
			9.35		5.7105e+00		1.0000e+00
			9.4		5.3359e+00		1.0000e+00
			9.45		4.9614e+00		1.0000e+00
			9.5		4.8442e+00		1.0000e+00
			9.55		4.7271e+00		1.0000e+00
			9.6		4.6100e+00		1.0000e+00
			9.65		4.4928e+00		1.0000e+00
			9.7		4.3758e+00		1.0000e+00
			9.75		4.2587e+00		1.0000e+00
			9.8		4.1416e+00		1.0000e+00
			9.85		4.0245e+00		1.0000e+00
			9.9		3.9695e+00		1.0000e+00
			9.95		3.9144e+00		1.0000e+00
			10.0		3.8594e+00		1.0000e+00
			10.05		3.8043e+00		1.0000e+00
			10.1		3.7493e+00		1.0000e+00
			10.15		3.6942e+00		1.0000e+00
			10.2		3.6392e+00		1.0000e+00
			10.25		3.5841e+00		1.0000e+00
			10.3		3.5291e+00		1.0000e+00
			10.35		3.4741e+00		1.0000e+00
			10.4		3.4191e+00		1.0000e+00
			10.45		3.3641e+00		1.0000e+00
			10.5		3.3091e+00		1.0000e+00
			10.55		3.2541e+00		1.0000e+00
			10.6		3.1992e+00		1.0000e+00
			10.65		3.1442e+00		1.0000e+00
			10.7		3.1091e+00		1.0000e+00
			10.75		3.0740e+00		1.0000e+00
			10.8		3.0389e+00		1.0000e+00
			10.85		3.0037e+00		1.0000e+00
			10.9		2.9687e+00		1.0000e+00
			10.95		2.9336e+00		1.0000e+00
			11.0		2.8985e+00		1.0000e+00
			11.05		2.8634e+00		1.0000e+00
			11.1		2.8283e+00		1.0000e+00
			11.15		2.7933e+00		1.0000e+00
			11.2		2.7582e+00		1.0000e+00
			11.25		2.7231e+00		1.0000e+00
			11.3		2.6881e+00		1.0000e+00
			11.35		2.6530e+00		1.0000e+00
			11.4		2.6179e+00		1.0000e+00
			11.45		2.5829e+00		1.0000e+00
			11.5		2.5561e+00		1.0000e+00
			11.55		2.5294e+00		1.0000e+00
			11.6		2.5026e+00		1.0000e+00
			11.65		2.4758e+00		1.0000e+00
			11.7		2.4491e+00		1.0000e+00
			11.75		2.4223e+00		1.0000e+00
			11.8		2.3956e+00		1.0000e+00
			11.85		2.3688e+00		1.0000e+00
			11.9		2.3421e+00		1.0000e+00
			11.95		2.3153e+00		1.0000e+00
			12.0		2.2886e+00		1.0000e+00
			12.05		2.2619e+00		1.0000e+00
			12.1		2.2351e+00		1.0000e+00
			12.15		2.2084e+00		1.0000e+00
			12.2		2.1817e+00		1.0000e+00
			12.25		2.1550e+00		1.0000e+00
			12.3		2.1255e+00		1.0000e+00
			12.35		2.0961e+00		1.0000e+00
			12.4		2.0667e+00		1.0000e+00
			12.45		2.0373e+00		1.0000e+00
			12.5		2.0079e+00		1.0000e+00
			12.55		1.9785e+00		1.0000e+00
			12.6		1.9492e+00		1.0000e+00
			12.65		1.9198e+00		1.0000e+00
			12.7		1.8904e+00		1.0000e+00
			12.75		1.8610e+00		1.0000e+00
			12.8		1.8317e+00		1.0000e+00
			12.85		1.8023e+00		1.0000e+00
			12.9		1.7729e+00		1.0000e+00
			12.95		1.7436e+00		1.0000e+00
			13.0		1.7142e+00		1.0000e+00
			13.05		1.6849e+00		1.0000e+00
			13.1		1.6677e+00		1.0000e+00
			13.15		1.6505e+00		1.0000e+00
			13.2		1.6333e+00		1.0000e+00
			13.25		1.6161e+00		1.0000e+00
			13.3		1.5990e+00		1.0000e+00
			13.35		1.5818e+00		1.0000e+00
			13.4		1.5646e+00		1.0000e+00
			13.45		1.5475e+00		1.0000e+00
			13.5		1.5303e+00		1.0000e+00
			13.55		1.5131e+00		1.0000e+00
			13.6		1.4960e+00		1.0000e+00
			13.65		1.4788e+00		1.0000e+00
			13.7		1.4617e+00		1.0000e+00
			13.75		1.4445e+00		1.0000e+00
			13.8		1.4274e+00		1.0000e+00
			13.85		1.4102e+00		1.0000e+00
			13.9		1.3960e+00		1.0000e+00
			13.95		1.3817e+00		1.0000e+00
