BEGIN_SCAN_DATA
	FORMAT=CC-Export V1.9                  
	FILE_CREATION_DATE=
	LAST_MODIFIED=11-Jan-2023 10:50:14
	BEGIN_SCAN  1
		TASK_NAME=RayStation Phantom Profiles & PDDs
		PROGRAM=RayStation
		COMMENT=RayStation Script Export
		MEAS_DATE=11-Jan-2023 10:50:14
		LINAC=RayStation
		MODALITY=X
		ISOCENTER=1000.00
		INPLANE_AXIS=Y
		CROSSPLANE_AXIS=X
		DEPTH_AXIS=Z
		INPLANE_AXIS_DIR=GUN_TARGET
		CROSSPLANE_AXIS_DIR=LEFT_RIGHT
		DEPTH_AXIS_DIR=UP_DOWN
		ENERGY=6.3
		NOMINAL_DMAX=20.00
		SSD=1000.0
		SCD=1000.00
		WEDGE_ANGLE=0.00
		FIELD_INPLANE=150.0
		FIELD_CROSSPLANE=100.0
		FIELD_TYPE=IRREGULAR
		GANTRY=0.00
		GANTRY_UPRIGHT_POSITION=0
		GANTRY_ROTATION=CW
		COLL_ANGLE=0.00
		REF_FIELD_DEPTH=50.00
		REF_FIELD_DEFINED=ISOCENTER
		FIELD_INPLANE=150.0
		FIELD_CROSSPLANE=100.0
		SCAN_CURVETYPE=PDD
		SCAN_OFFAXIS_INPLANE=0.00
		SCAN_OFFAXIS_CROSSPLANE=0.00
		SCAN_ANGLE=0.00
		SCAN_DIAGONAL=NOT_DIAGONAL
		SCAN_DIRECTION=NEGATIVE
		MEAS_MEDIUM=WATER
		MEAS_TIME=1.000
		MEAS_UNIT=cGy
		INCLINATION_ANGLE=0.00
		PRESSURE=1013.20
		TEMPERATURE=20.00
		NORM_TEMPERATURE=20.00
		CORRECTION_FACTOR=1.0000
		BEGIN_DATA
			-30.05		2.3289e+01		1.0000e+00
			-30.0		3.4934e+01		1.0000e+00
			-29.95		4.6577e+01		1.0000e+00
			-29.9		5.0683e+01		1.0000e+00
			-29.85		5.4789e+01		1.0000e+00
			-29.8		5.8894e+01		1.0000e+00
			-29.75		6.3000e+01		1.0000e+00
			-29.7		6.4803e+01		1.0000e+00
			-29.65		6.6606e+01		1.0000e+00
			-29.6		6.8409e+01		1.0000e+00
			-29.55		7.0212e+01		1.0000e+00
			-29.5		7.1172e+01		1.0000e+00
			-29.45		7.2132e+01		1.0000e+00
			-29.4		7.3092e+01		1.0000e+00
			-29.35		7.4052e+01		1.0000e+00
			-29.3		7.4541e+01		1.0000e+00
			-29.25		7.5030e+01		1.0000e+00
			-29.2		7.5519e+01		1.0000e+00
			-29.15		7.6008e+01		1.0000e+00
			-29.1		7.6294e+01		1.0000e+00
			-29.05		7.6579e+01		1.0000e+00
			-29.0		7.6864e+01		1.0000e+00
			-28.95		7.7149e+01		1.0000e+00
			-28.9		7.7268e+01		1.0000e+00
			-28.85		7.7387e+01		1.0000e+00
			-28.8		7.7506e+01		1.0000e+00
			-28.75		7.7625e+01		1.0000e+00
			-28.7		7.7609e+01		1.0000e+00
			-28.65		7.7592e+01		1.0000e+00
			-28.6		7.7576e+01		1.0000e+00
			-28.55		7.7560e+01		1.0000e+00
			-28.5		7.7518e+01		1.0000e+00
			-28.45		7.7476e+01		1.0000e+00
			-28.4		7.7434e+01		1.0000e+00
			-28.35		7.7392e+01		1.0000e+00
			-28.3		7.7279e+01		1.0000e+00
			-28.25		7.7167e+01		1.0000e+00
			-28.2		7.7055e+01		1.0000e+00
			-28.15		7.6943e+01		1.0000e+00
			-28.1		7.6837e+01		1.0000e+00
			-28.05		7.6730e+01		1.0000e+00
			-28.0		7.6624e+01		1.0000e+00
			-27.95		7.6517e+01		1.0000e+00
			-27.9		7.6365e+01		1.0000e+00
			-27.85		7.6213e+01		1.0000e+00
			-27.8		7.6061e+01		1.0000e+00
			-27.75		7.5909e+01		1.0000e+00
			-27.7		7.5770e+01		1.0000e+00
			-27.65		7.5631e+01		1.0000e+00
			-27.6		7.5493e+01		1.0000e+00
			-27.55		7.5354e+01		1.0000e+00
			-27.5		7.5213e+01		1.0000e+00
			-27.45		7.5072e+01		1.0000e+00
			-27.4		7.4930e+01		1.0000e+00
			-27.35		7.4789e+01		1.0000e+00
			-27.3		7.4614e+01		1.0000e+00
			-27.25		7.4439e+01		1.0000e+00
			-27.2		7.4265e+01		1.0000e+00
			-27.15		7.4090e+01		1.0000e+00
			-27.1		7.3942e+01		1.0000e+00
			-27.05		7.3794e+01		1.0000e+00
			-27.0		7.3646e+01		1.0000e+00
			-26.95		7.3498e+01		1.0000e+00
			-26.9		7.3328e+01		1.0000e+00
			-26.85		7.3158e+01		1.0000e+00
			-26.8		7.2987e+01		1.0000e+00
			-26.75		7.2817e+01		1.0000e+00
			-26.7		7.2672e+01		1.0000e+00
			-26.65		7.2527e+01		1.0000e+00
			-26.6		7.2382e+01		1.0000e+00
			-26.55		7.2237e+01		1.0000e+00
			-26.5		7.2092e+01		1.0000e+00
			-26.45		7.1946e+01		1.0000e+00
			-26.4		7.1801e+01		1.0000e+00
			-26.35		7.1655e+01		1.0000e+00
			-26.3		7.1503e+01		1.0000e+00
			-26.25		7.1351e+01		1.0000e+00
			-26.2		7.1199e+01		1.0000e+00
			-26.15		7.1047e+01		1.0000e+00
			-26.1		7.0886e+01		1.0000e+00
			-26.05		7.0726e+01		1.0000e+00
			-26.0		7.0566e+01		1.0000e+00
			-25.95		7.0406e+01		1.0000e+00
			-25.9		7.0246e+01		1.0000e+00
			-25.85		7.0087e+01		1.0000e+00
			-25.8		6.9928e+01		1.0000e+00
			-25.75		6.9769e+01		1.0000e+00
			-25.7		6.9611e+01		1.0000e+00
			-25.65		6.9453e+01		1.0000e+00
			-25.6		6.9295e+01		1.0000e+00
			-25.55		6.9137e+01		1.0000e+00
			-25.5		6.8980e+01		1.0000e+00
			-25.45		6.8823e+01		1.0000e+00
			-25.4		6.8666e+01		1.0000e+00
			-25.35		6.8509e+01		1.0000e+00
			-25.3		6.8345e+01		1.0000e+00
			-25.25		6.8182e+01		1.0000e+00
			-25.2		6.8019e+01		1.0000e+00
			-25.15		6.7856e+01		1.0000e+00
			-25.1		6.7694e+01		1.0000e+00
			-25.05		6.7532e+01		1.0000e+00
			-25.0		6.7370e+01		1.0000e+00
			-24.95		6.7208e+01		1.0000e+00
			-24.9		6.7048e+01		1.0000e+00
			-24.85		6.6887e+01		1.0000e+00
			-24.8		6.6726e+01		1.0000e+00
			-24.75		6.6565e+01		1.0000e+00
			-24.7		6.6405e+01		1.0000e+00
			-24.65		6.6245e+01		1.0000e+00
			-24.6		6.6086e+01		1.0000e+00
			-24.55		6.5926e+01		1.0000e+00
			-24.5		6.5772e+01		1.0000e+00
			-24.45		6.5617e+01		1.0000e+00
			-24.4		6.5463e+01		1.0000e+00
			-24.35		6.5308e+01		1.0000e+00
			-24.3		6.5155e+01		1.0000e+00
			-24.25		6.5001e+01		1.0000e+00
			-24.2		6.4848e+01		1.0000e+00
			-24.15		6.4694e+01		1.0000e+00
			-24.1		6.4542e+01		1.0000e+00
			-24.05		6.4390e+01		1.0000e+00
			-24.0		6.4237e+01		1.0000e+00
			-23.95		6.4085e+01		1.0000e+00
			-23.9		6.3933e+01		1.0000e+00
			-23.85		6.3782e+01		1.0000e+00
			-23.8		6.3631e+01		1.0000e+00
			-23.75		6.3479e+01		1.0000e+00
			-23.7		6.3325e+01		1.0000e+00
			-23.65		6.3170e+01		1.0000e+00
			-23.6		6.3015e+01		1.0000e+00
			-23.55		6.2861e+01		1.0000e+00
			-23.5		6.2707e+01		1.0000e+00
			-23.45		6.2554e+01		1.0000e+00
			-23.4		6.2400e+01		1.0000e+00
			-23.35		6.2246e+01		1.0000e+00
			-23.3		6.2094e+01		1.0000e+00
			-23.25		6.1941e+01		1.0000e+00
			-23.2		6.1789e+01		1.0000e+00
			-23.15		6.1636e+01		1.0000e+00
			-23.1		6.1485e+01		1.0000e+00
			-23.05		6.1333e+01		1.0000e+00
			-23.0		6.1181e+01		1.0000e+00
			-22.95		6.1030e+01		1.0000e+00
			-22.9		6.0879e+01		1.0000e+00
			-22.85		6.0728e+01		1.0000e+00
			-22.8		6.0577e+01		1.0000e+00
			-22.75		6.0426e+01		1.0000e+00
			-22.7		6.0276e+01		1.0000e+00
			-22.65		6.0126e+01		1.0000e+00
			-22.6		5.9976e+01		1.0000e+00
			-22.55		5.9826e+01		1.0000e+00
			-22.5		5.9677e+01		1.0000e+00
			-22.45		5.9528e+01		1.0000e+00
			-22.4		5.9379e+01		1.0000e+00
			-22.35		5.9230e+01		1.0000e+00
			-22.3		5.9082e+01		1.0000e+00
			-22.25		5.8934e+01		1.0000e+00
			-22.2		5.8786e+01		1.0000e+00
			-22.15		5.8638e+01		1.0000e+00
			-22.1		5.8490e+01		1.0000e+00
			-22.05		5.8341e+01		1.0000e+00
			-22.0		5.8193e+01		1.0000e+00
			-21.95		5.8044e+01		1.0000e+00
			-21.9		5.7897e+01		1.0000e+00
			-21.85		5.7750e+01		1.0000e+00
			-21.8		5.7602e+01		1.0000e+00
			-21.75		5.7455e+01		1.0000e+00
			-21.7		5.7308e+01		1.0000e+00
			-21.65		5.7162e+01		1.0000e+00
			-21.6		5.7015e+01		1.0000e+00
			-21.55		5.6869e+01		1.0000e+00
			-21.5		5.6723e+01		1.0000e+00
			-21.45		5.6578e+01		1.0000e+00
			-21.4		5.6432e+01		1.0000e+00
			-21.35		5.6287e+01		1.0000e+00
			-21.3		5.6139e+01		1.0000e+00
			-21.25		5.5991e+01		1.0000e+00
			-21.2		5.5844e+01		1.0000e+00
			-21.15		5.5696e+01		1.0000e+00
			-21.1		5.5549e+01		1.0000e+00
			-21.05		5.5403e+01		1.0000e+00
			-21.0		5.5256e+01		1.0000e+00
			-20.95		5.5110e+01		1.0000e+00
			-20.9		5.4964e+01		1.0000e+00
			-20.85		5.4818e+01		1.0000e+00
			-20.8		5.4672e+01		1.0000e+00
			-20.75		5.4527e+01		1.0000e+00
			-20.7		5.4382e+01		1.0000e+00
			-20.65		5.4237e+01		1.0000e+00
			-20.6		5.4093e+01		1.0000e+00
			-20.55		5.3948e+01		1.0000e+00
			-20.5		5.3810e+01		1.0000e+00
			-20.45		5.3673e+01		1.0000e+00
			-20.4		5.3535e+01		1.0000e+00
			-20.35		5.3398e+01		1.0000e+00
			-20.3		5.3261e+01		1.0000e+00
			-20.25		5.3124e+01		1.0000e+00
			-20.2		5.2988e+01		1.0000e+00
			-20.15		5.2851e+01		1.0000e+00
			-20.1		5.2715e+01		1.0000e+00
			-20.05		5.2579e+01		1.0000e+00
			-20.0		5.2444e+01		1.0000e+00
			-19.95		5.2308e+01		1.0000e+00
			-19.9		5.2173e+01		1.0000e+00
			-19.85		5.2038e+01		1.0000e+00
			-19.8		5.1903e+01		1.0000e+00
			-19.75		5.1768e+01		1.0000e+00
			-19.7		5.1633e+01		1.0000e+00
			-19.65		5.1497e+01		1.0000e+00
			-19.6		5.1361e+01		1.0000e+00
			-19.55		5.1226e+01		1.0000e+00
			-19.5		5.1091e+01		1.0000e+00
			-19.45		5.0956e+01		1.0000e+00
			-19.4		5.0822e+01		1.0000e+00
			-19.35		5.0687e+01		1.0000e+00
			-19.3		5.0553e+01		1.0000e+00
			-19.25		5.0419e+01		1.0000e+00
			-19.2		5.0285e+01		1.0000e+00
			-19.15		5.0152e+01		1.0000e+00
			-19.1		5.0019e+01		1.0000e+00
			-19.05		4.9886e+01		1.0000e+00
			-19.0		4.9753e+01		1.0000e+00
			-18.95		4.9620e+01		1.0000e+00
			-18.9		4.9490e+01		1.0000e+00
			-18.85		4.9361e+01		1.0000e+00
			-18.8		4.9232e+01		1.0000e+00
			-18.75		4.9103e+01		1.0000e+00
			-18.7		4.8974e+01		1.0000e+00
			-18.65		4.8846e+01		1.0000e+00
			-18.6		4.8718e+01		1.0000e+00
			-18.55		4.8589e+01		1.0000e+00
			-18.5		4.8462e+01		1.0000e+00
			-18.45		4.8334e+01		1.0000e+00
			-18.4		4.8207e+01		1.0000e+00
			-18.35		4.8079e+01		1.0000e+00
			-18.3		4.7952e+01		1.0000e+00
			-18.25		4.7826e+01		1.0000e+00
			-18.2		4.7699e+01		1.0000e+00
			-18.15		4.7572e+01		1.0000e+00
			-18.1		4.7448e+01		1.0000e+00
			-18.05		4.7323e+01		1.0000e+00
			-18.0		4.7199e+01		1.0000e+00
			-17.95		4.7074e+01		1.0000e+00
			-17.9		4.6950e+01		1.0000e+00
			-17.85		4.6827e+01		1.0000e+00
			-17.8		4.6703e+01		1.0000e+00
			-17.75		4.6579e+01		1.0000e+00
			-17.7		4.6457e+01		1.0000e+00
			-17.65		4.6334e+01		1.0000e+00
			-17.6		4.6211e+01		1.0000e+00
			-17.55		4.6088e+01		1.0000e+00
			-17.5		4.5966e+01		1.0000e+00
			-17.45		4.5844e+01		1.0000e+00
			-17.4		4.5722e+01		1.0000e+00
			-17.35		4.5600e+01		1.0000e+00
			-17.3		4.5475e+01		1.0000e+00
			-17.25		4.5351e+01		1.0000e+00
			-17.2		4.5227e+01		1.0000e+00
			-17.15		4.5103e+01		1.0000e+00
			-17.1		4.4980e+01		1.0000e+00
			-17.05		4.4857e+01		1.0000e+00
			-17.0		4.4733e+01		1.0000e+00
			-16.95		4.4610e+01		1.0000e+00
			-16.9		4.4488e+01		1.0000e+00
			-16.85		4.4365e+01		1.0000e+00
			-16.8		4.4243e+01		1.0000e+00
			-16.75		4.4120e+01		1.0000e+00
			-16.7		4.3999e+01		1.0000e+00
			-16.65		4.3877e+01		1.0000e+00
			-16.6		4.3755e+01		1.0000e+00
			-16.55		4.3634e+01		1.0000e+00
			-16.5		4.3517e+01		1.0000e+00
			-16.45		4.3400e+01		1.0000e+00
			-16.4		4.3282e+01		1.0000e+00
			-16.35		4.3165e+01		1.0000e+00
			-16.3		4.3049e+01		1.0000e+00
			-16.25		4.2933e+01		1.0000e+00
			-16.2		4.2816e+01		1.0000e+00
			-16.15		4.2700e+01		1.0000e+00
			-16.1		4.2585e+01		1.0000e+00
			-16.05		4.2469e+01		1.0000e+00
			-16.0		4.2353e+01		1.0000e+00
			-15.95		4.2238e+01		1.0000e+00
			-15.9		4.2123e+01		1.0000e+00
			-15.85		4.2008e+01		1.0000e+00
			-15.8		4.1893e+01		1.0000e+00
			-15.75		4.1779e+01		1.0000e+00
			-15.7		4.1664e+01		1.0000e+00
			-15.65		4.1549e+01		1.0000e+00
			-15.6		4.1434e+01		1.0000e+00
			-15.55		4.1320e+01		1.0000e+00
			-15.5		4.1206e+01		1.0000e+00
			-15.45		4.1092e+01		1.0000e+00
			-15.4		4.0978e+01		1.0000e+00
			-15.35		4.0864e+01		1.0000e+00
			-15.3		4.0750e+01		1.0000e+00
			-15.25		4.0637e+01		1.0000e+00
			-15.2		4.0524e+01		1.0000e+00
			-15.15		4.0411e+01		1.0000e+00
			-15.1		4.0298e+01		1.0000e+00
			-15.05		4.0186e+01		1.0000e+00
			-15.0		4.0073e+01		1.0000e+00
			-14.95		3.9961e+01		1.0000e+00
			-14.9		3.9851e+01		1.0000e+00
			-14.85		3.9741e+01		1.0000e+00
			-14.8		3.9631e+01		1.0000e+00
			-14.75		3.9521e+01		1.0000e+00
			-14.7		3.9412e+01		1.0000e+00
			-14.65		3.9303e+01		1.0000e+00
			-14.6		3.9193e+01		1.0000e+00
			-14.55		3.9084e+01		1.0000e+00
			-14.5		3.8976e+01		1.0000e+00
			-14.45		3.8867e+01		1.0000e+00
			-14.4		3.8759e+01		1.0000e+00
			-14.35		3.8650e+01		1.0000e+00
			-14.3		3.8542e+01		1.0000e+00
			-14.25		3.8435e+01		1.0000e+00
			-14.2		3.8327e+01		1.0000e+00
			-14.15		3.8219e+01		1.0000e+00
			-14.1		3.8115e+01		1.0000e+00
			-14.05		3.8010e+01		1.0000e+00
			-14.0		3.7906e+01		1.0000e+00
			-13.95		3.7802e+01		1.0000e+00
			-13.9		3.7698e+01		1.0000e+00
			-13.85		3.7594e+01		1.0000e+00
			-13.8		3.7491e+01		1.0000e+00
			-13.75		3.7387e+01		1.0000e+00
			-13.7		3.7284e+01		1.0000e+00
			-13.65		3.7181e+01		1.0000e+00
			-13.6		3.7078e+01		1.0000e+00
			-13.55		3.6975e+01		1.0000e+00
			-13.5		3.6873e+01		1.0000e+00
			-13.45		3.6770e+01		1.0000e+00
			-13.4		3.6668e+01		1.0000e+00
			-13.35		3.6565e+01		1.0000e+00
			-13.3		3.6465e+01		1.0000e+00
			-13.25		3.6364e+01		1.0000e+00
			-13.2		3.6263e+01		1.0000e+00
			-13.15		3.6163e+01		1.0000e+00
			-13.1		3.6063e+01		1.0000e+00
			-13.05		3.5963e+01		1.0000e+00
			-13.0		3.5863e+01		1.0000e+00
			-12.95		3.5763e+01		1.0000e+00
			-12.9		3.5663e+01		1.0000e+00
			-12.85		3.5564e+01		1.0000e+00
			-12.8		3.5464e+01		1.0000e+00
			-12.75		3.5365e+01		1.0000e+00
			-12.7		3.5266e+01		1.0000e+00
			-12.65		3.5167e+01		1.0000e+00
			-12.6		3.5068e+01		1.0000e+00
			-12.55		3.4970e+01		1.0000e+00
			-12.5		3.4876e+01		1.0000e+00
			-12.45		3.4782e+01		1.0000e+00
			-12.4		3.4688e+01		1.0000e+00
			-12.35		3.4594e+01		1.0000e+00
			-12.3		3.4500e+01		1.0000e+00
			-12.25		3.4407e+01		1.0000e+00
			-12.2		3.4313e+01		1.0000e+00
			-12.15		3.4220e+01		1.0000e+00
			-12.1		3.4127e+01		1.0000e+00
			-12.05		3.4034e+01		1.0000e+00
			-12.0		3.3941e+01		1.0000e+00
			-11.95		3.3848e+01		1.0000e+00
			-11.9		3.3756e+01		1.0000e+00
			-11.85		3.3664e+01		1.0000e+00
			-11.8		3.3572e+01		1.0000e+00
			-11.75		3.3479e+01		1.0000e+00
			-11.7		3.3387e+01		1.0000e+00
			-11.65		3.3295e+01		1.0000e+00
			-11.6		3.3203e+01		1.0000e+00
			-11.55		3.3111e+01		1.0000e+00
			-11.5		3.3020e+01		1.0000e+00
			-11.45		3.2929e+01		1.0000e+00
			-11.4		3.2837e+01		1.0000e+00
			-11.35		3.2746e+01		1.0000e+00
			-11.3		3.2655e+01		1.0000e+00
			-11.25		3.2564e+01		1.0000e+00
			-11.2		3.2473e+01		1.0000e+00
			-11.15		3.2383e+01		1.0000e+00
			-11.1		3.2292e+01		1.0000e+00
			-11.05		3.2202e+01		1.0000e+00
			-11.0		3.2112e+01		1.0000e+00
			-10.95		3.2021e+01		1.0000e+00
			-10.9		3.1934e+01		1.0000e+00
			-10.85		3.1847e+01		1.0000e+00
			-10.8		3.1760e+01		1.0000e+00
			-10.75		3.1673e+01		1.0000e+00
			-10.7		3.1586e+01		1.0000e+00
			-10.65		3.1499e+01		1.0000e+00
			-10.6		3.1413e+01		1.0000e+00
			-10.55		3.1326e+01		1.0000e+00
			-10.5		3.1240e+01		1.0000e+00
			-10.45		3.1154e+01		1.0000e+00
			-10.4		3.1068e+01		1.0000e+00
			-10.35		3.0982e+01		1.0000e+00
			-10.3		3.0896e+01		1.0000e+00
			-10.25		3.0811e+01		1.0000e+00
			-10.2		3.0725e+01		1.0000e+00
			-10.15		3.0640e+01		1.0000e+00
			-10.1		3.0556e+01		1.0000e+00
			-10.05		3.0473e+01		1.0000e+00
			-10.0		3.0390e+01		1.0000e+00
			-9.95		3.0306e+01		1.0000e+00
			-9.9		3.0224e+01		1.0000e+00
			-9.85		3.0141e+01		1.0000e+00
			-9.8		3.0058e+01		1.0000e+00
			-9.75		2.9976e+01		1.0000e+00
			-9.7		2.9893e+01		1.0000e+00
			-9.65		2.9811e+01		1.0000e+00
			-9.6		2.9729e+01		1.0000e+00
			-9.55		2.9647e+01		1.0000e+00
			-9.5		2.9565e+01		1.0000e+00
			-9.45		2.9483e+01		1.0000e+00
			-9.4		2.9401e+01		1.0000e+00
			-9.35		2.9320e+01		1.0000e+00
			-9.3		2.9239e+01		1.0000e+00
			-9.25		2.9159e+01		1.0000e+00
			-9.2		2.9078e+01		1.0000e+00
			-9.15		2.8998e+01		1.0000e+00
			-9.1		2.8918e+01		1.0000e+00
			-9.05		2.8838e+01		1.0000e+00
			-9.0		2.8758e+01		1.0000e+00
			-8.95		2.8678e+01		1.0000e+00
			-8.9		2.8599e+01		1.0000e+00
			-8.85		2.8520e+01		1.0000e+00
			-8.8		2.8440e+01		1.0000e+00
			-8.75		2.8361e+01		1.0000e+00
			-8.7		2.8282e+01		1.0000e+00
			-8.65		2.8203e+01		1.0000e+00
			-8.6		2.8124e+01		1.0000e+00
			-8.55		2.8045e+01		1.0000e+00
			-8.5		2.7969e+01		1.0000e+00
			-8.45		2.7893e+01		1.0000e+00
			-8.4		2.7817e+01		1.0000e+00
			-8.35		2.7741e+01		1.0000e+00
			-8.3		2.7666e+01		1.0000e+00
			-8.25		2.7590e+01		1.0000e+00
			-8.2		2.7515e+01		1.0000e+00
			-8.15		2.7439e+01		1.0000e+00
			-8.1		2.7364e+01		1.0000e+00
			-8.05		2.7289e+01		1.0000e+00
			-8.0		2.7214e+01		1.0000e+00
			-7.95		2.7139e+01		1.0000e+00
			-7.9		2.7065e+01		1.0000e+00
			-7.85		2.6990e+01		1.0000e+00
			-7.8		2.6916e+01		1.0000e+00
			-7.75		2.6841e+01		1.0000e+00
			-7.7		2.6767e+01		1.0000e+00
			-7.65		2.6692e+01		1.0000e+00
			-7.6		2.6618e+01		1.0000e+00
			-7.55		2.6543e+01		1.0000e+00
			-7.5		2.6469e+01		1.0000e+00
			-7.45		2.6395e+01		1.0000e+00
			-7.4		2.6321e+01		1.0000e+00
			-7.35		2.6247e+01		1.0000e+00
			-7.3		2.6174e+01		1.0000e+00
			-7.25		2.6100e+01		1.0000e+00
			-7.2		2.6027e+01		1.0000e+00
			-7.15		2.5953e+01		1.0000e+00
			-7.1		2.5880e+01		1.0000e+00
			-7.05		2.5807e+01		1.0000e+00
			-7.0		2.5734e+01		1.0000e+00
			-6.95		2.5661e+01		1.0000e+00
			-6.9		2.5591e+01		1.0000e+00
			-6.85		2.5520e+01		1.0000e+00
			-6.8		2.5450e+01		1.0000e+00
			-6.75		2.5379e+01		1.0000e+00
			-6.7		2.5309e+01		1.0000e+00
			-6.65		2.5239e+01		1.0000e+00
			-6.6		2.5169e+01		1.0000e+00
			-6.55		2.5099e+01		1.0000e+00
			-6.5		2.5029e+01		1.0000e+00
			-6.45		2.4960e+01		1.0000e+00
			-6.4		2.4890e+01		1.0000e+00
			-6.35		2.4820e+01		1.0000e+00
			-6.3		2.4751e+01		1.0000e+00
			-6.25		2.4682e+01		1.0000e+00
			-6.2		2.4613e+01		1.0000e+00
			-6.15		2.4544e+01		1.0000e+00
			-6.1		2.4477e+01		1.0000e+00
			-6.05		2.4410e+01		1.0000e+00
			-6.0		2.4343e+01		1.0000e+00
			-5.95		2.4276e+01		1.0000e+00
			-5.9		2.4209e+01		1.0000e+00
			-5.85		2.4142e+01		1.0000e+00
			-5.8		2.4076e+01		1.0000e+00
			-5.75		2.4009e+01		1.0000e+00
			-5.7		2.3943e+01		1.0000e+00
			-5.65		2.3877e+01		1.0000e+00
			-5.6		2.3811e+01		1.0000e+00
			-5.55		2.3744e+01		1.0000e+00
			-5.5		2.3679e+01		1.0000e+00
			-5.45		2.3613e+01		1.0000e+00
			-5.4		2.3547e+01		1.0000e+00
			-5.35		2.3481e+01		1.0000e+00
			-5.3		2.3417e+01		1.0000e+00
			-5.25		2.3352e+01		1.0000e+00
			-5.2		2.3288e+01		1.0000e+00
			-5.15		2.3224e+01		1.0000e+00
			-5.1		2.3160e+01		1.0000e+00
			-5.05		2.3096e+01		1.0000e+00
			-5.0		2.3032e+01		1.0000e+00
			-4.95		2.2968e+01		1.0000e+00
			-4.9		2.2904e+01		1.0000e+00
			-4.85		2.2841e+01		1.0000e+00
			-4.8		2.2777e+01		1.0000e+00
			-4.75		2.2713e+01		1.0000e+00
			-4.7		2.2650e+01		1.0000e+00
			-4.65		2.2587e+01		1.0000e+00
			-4.6		2.2524e+01		1.0000e+00
			-4.55		2.2460e+01		1.0000e+00
			-4.5		2.2400e+01		1.0000e+00
			-4.45		2.2340e+01		1.0000e+00
			-4.4		2.2280e+01		1.0000e+00
			-4.35		2.2219e+01		1.0000e+00
			-4.3		2.2159e+01		1.0000e+00
			-4.25		2.2100e+01		1.0000e+00
			-4.2		2.2040e+01		1.0000e+00
			-4.15		2.1980e+01		1.0000e+00
			-4.1		2.1920e+01		1.0000e+00
			-4.05		2.1861e+01		1.0000e+00
			-4.0		2.1801e+01		1.0000e+00
			-3.95		2.1742e+01		1.0000e+00
			-3.9		2.1682e+01		1.0000e+00
			-3.85		2.1623e+01		1.0000e+00
			-3.8		2.1564e+01		1.0000e+00
			-3.75		2.1505e+01		1.0000e+00
			-3.7		2.1446e+01		1.0000e+00
			-3.65		2.1388e+01		1.0000e+00
			-3.6		2.1329e+01		1.0000e+00
			-3.55		2.1271e+01		1.0000e+00
			-3.5		2.1213e+01		1.0000e+00
			-3.45		2.1154e+01		1.0000e+00
			-3.4		2.1096e+01		1.0000e+00
			-3.35		2.1038e+01		1.0000e+00
			-3.3		2.0980e+01		1.0000e+00
			-3.25		2.0923e+01		1.0000e+00
			-3.2		2.0865e+01		1.0000e+00
			-3.15		2.0807e+01		1.0000e+00
			-3.1		2.0749e+01		1.0000e+00
			-3.05		2.0692e+01		1.0000e+00
			-3.0		2.0634e+01		1.0000e+00
			-2.95		2.0577e+01		1.0000e+00
			-2.9		2.0522e+01		1.0000e+00
			-2.85		2.0466e+01		1.0000e+00
			-2.8		2.0411e+01		1.0000e+00
			-2.75		2.0356e+01		1.0000e+00
			-2.7		2.0301e+01		1.0000e+00
			-2.65		2.0246e+01		1.0000e+00
			-2.6		2.0191e+01		1.0000e+00
			-2.55		2.0136e+01		1.0000e+00
			-2.5		2.0081e+01		1.0000e+00
			-2.45		2.0026e+01		1.0000e+00
			-2.4		1.9972e+01		1.0000e+00
			-2.35		1.9917e+01		1.0000e+00
			-2.3		1.9863e+01		1.0000e+00
			-2.25		1.9808e+01		1.0000e+00
			-2.2		1.9754e+01		1.0000e+00
			-2.15		1.9700e+01		1.0000e+00
			-2.1		1.9647e+01		1.0000e+00
			-2.05		1.9594e+01		1.0000e+00
			-2.0		1.9541e+01		1.0000e+00
			-1.95		1.9488e+01		1.0000e+00
			-1.9		1.9436e+01		1.0000e+00
			-1.85		1.9383e+01		1.0000e+00
			-1.8		1.9331e+01		1.0000e+00
			-1.75		1.9278e+01		1.0000e+00
			-1.7		1.9226e+01		1.0000e+00
			-1.65		1.9174e+01		1.0000e+00
			-1.6		1.9122e+01		1.0000e+00
			-1.55		1.9069e+01		1.0000e+00
			-1.5		1.9017e+01		1.0000e+00
			-1.45		1.8966e+01		1.0000e+00
			-1.4		1.8914e+01		1.0000e+00
			-1.35		1.8862e+01		1.0000e+00
			-1.3		1.8811e+01		1.0000e+00
			-1.25		1.8760e+01		1.0000e+00
			-1.2		1.8709e+01		1.0000e+00
			-1.15		1.8658e+01		1.0000e+00
			-1.1		1.8607e+01		1.0000e+00
			-1.05		1.8556e+01		1.0000e+00
			-1.0		1.8505e+01		1.0000e+00
			-0.95		1.8454e+01		1.0000e+00
			-0.9		1.8404e+01		1.0000e+00
			-0.85		1.8354e+01		1.0000e+00
			-0.8		1.8303e+01		1.0000e+00
			-0.75		1.8253e+01		1.0000e+00
			-0.7		1.8202e+01		1.0000e+00
			-0.65		1.8152e+01		1.0000e+00
			-0.6		1.8102e+01		1.0000e+00
			-0.55		1.8052e+01		1.0000e+00
			-0.5		1.8004e+01		1.0000e+00
			-0.45		1.7955e+01		1.0000e+00
			-0.4		1.7907e+01		1.0000e+00
			-0.35		1.7859e+01		1.0000e+00
			-0.3		1.7811e+01		1.0000e+00
			-0.25		1.7763e+01		1.0000e+00
			-0.2		1.7715e+01		1.0000e+00
			-0.15		1.7667e+01		1.0000e+00
			-0.1		1.7619e+01		1.0000e+00
			-0.05		1.7571e+01		1.0000e+00
			0.0		1.7523e+01		1.0000e+00
			0.05		1.7476e+01		1.0000e+00
			0.1		1.7428e+01		1.0000e+00
			0.15		1.7381e+01		1.0000e+00
			0.2		1.7333e+01		1.0000e+00
			0.25		1.7286e+01		1.0000e+00
			0.3		1.7239e+01		1.0000e+00
			0.35		1.7192e+01		1.0000e+00
			0.4		1.7146e+01		1.0000e+00
			0.45		1.7099e+01		1.0000e+00
			0.5		1.7052e+01		1.0000e+00
			0.55		1.7006e+01		1.0000e+00
			0.6		1.6959e+01		1.0000e+00
			0.65		1.6913e+01		1.0000e+00
			0.7		1.6866e+01		1.0000e+00
			0.75		1.6820e+01		1.0000e+00
			0.8		1.6774e+01		1.0000e+00
			0.85		1.6728e+01		1.0000e+00
			0.9		1.6682e+01		1.0000e+00
			0.95		1.6636e+01		1.0000e+00
			1.0		1.6590e+01		1.0000e+00
			1.05		1.6544e+01		1.0000e+00
			1.1		1.6499e+01		1.0000e+00
			1.15		1.6455e+01		1.0000e+00
			1.2		1.6410e+01		1.0000e+00
			1.25		1.6366e+01		1.0000e+00
			1.3		1.6322e+01		1.0000e+00
			1.35		1.6278e+01		1.0000e+00
			1.4		1.6233e+01		1.0000e+00
			1.45		1.6189e+01		1.0000e+00
			1.5		1.6145e+01		1.0000e+00
			1.55		1.6101e+01		1.0000e+00
			1.6		1.6058e+01		1.0000e+00
			1.65		1.6014e+01		1.0000e+00
			1.7		1.5970e+01		1.0000e+00
			1.75		1.5926e+01		1.0000e+00
			1.8		1.5883e+01		1.0000e+00
			1.85		1.5839e+01		1.0000e+00
			1.9		1.5797e+01		1.0000e+00
			1.95		1.5755e+01		1.0000e+00
			2.0		1.5712e+01		1.0000e+00
			2.05		1.5670e+01		1.0000e+00
			2.1		1.5628e+01		1.0000e+00
			2.15		1.5586e+01		1.0000e+00
			2.2		1.5544e+01		1.0000e+00
			2.25		1.5502e+01		1.0000e+00
			2.3		1.5460e+01		1.0000e+00
			2.35		1.5419e+01		1.0000e+00
			2.4		1.5377e+01		1.0000e+00
			2.45		1.5335e+01		1.0000e+00
			2.5		1.5294e+01		1.0000e+00
			2.55		1.5252e+01		1.0000e+00
			2.6		1.5210e+01		1.0000e+00
			2.65		1.5169e+01		1.0000e+00
			2.7		1.5128e+01		1.0000e+00
			2.75		1.5088e+01		1.0000e+00
			2.8		1.5047e+01		1.0000e+00
			2.85		1.5007e+01		1.0000e+00
			2.9		1.4967e+01		1.0000e+00
			2.95		1.4926e+01		1.0000e+00
			3.0		1.4886e+01		1.0000e+00
			3.05		1.4846e+01		1.0000e+00
			3.1		1.4806e+01		1.0000e+00
			3.15		1.4766e+01		1.0000e+00
			3.2		1.4726e+01		1.0000e+00
			3.25		1.4686e+01		1.0000e+00
			3.3		1.4646e+01		1.0000e+00
			3.35		1.4606e+01		1.0000e+00
			3.4		1.4566e+01		1.0000e+00
			3.45		1.4526e+01		1.0000e+00
			3.5		1.4488e+01		1.0000e+00
			3.55		1.4449e+01		1.0000e+00
			3.6		1.4410e+01		1.0000e+00
			3.65		1.4372e+01		1.0000e+00
			3.7		1.4333e+01		1.0000e+00
			3.75		1.4295e+01		1.0000e+00
			3.8		1.4257e+01		1.0000e+00
			3.85		1.4218e+01		1.0000e+00
			3.9		1.4180e+01		1.0000e+00
			3.95		1.4142e+01		1.0000e+00
			4.0		1.4104e+01		1.0000e+00
			4.05		1.4065e+01		1.0000e+00
			4.1		1.4028e+01		1.0000e+00
			4.15		1.3990e+01		1.0000e+00
			4.2		1.3952e+01		1.0000e+00
			4.25		1.3914e+01		1.0000e+00
			4.3		1.3876e+01		1.0000e+00
			4.35		1.3839e+01		1.0000e+00
			4.4		1.3802e+01		1.0000e+00
			4.45		1.3764e+01		1.0000e+00
			4.5		1.3727e+01		1.0000e+00
			4.55		1.3690e+01		1.0000e+00
			4.6		1.3653e+01		1.0000e+00
			4.65		1.3616e+01		1.0000e+00
			4.7		1.3579e+01		1.0000e+00
			4.75		1.3542e+01		1.0000e+00
			4.8		1.3505e+01		1.0000e+00
			4.85		1.3468e+01		1.0000e+00
			4.9		1.3431e+01		1.0000e+00
			4.95		1.3394e+01		1.0000e+00
			5.0		1.3358e+01		1.0000e+00
			5.05		1.3321e+01		1.0000e+00
			5.1		1.3285e+01		1.0000e+00
			5.15		1.3250e+01		1.0000e+00
			5.2		1.3214e+01		1.0000e+00
			5.25		1.3179e+01		1.0000e+00
			5.3		1.3143e+01		1.0000e+00
			5.35		1.3108e+01		1.0000e+00
			5.4		1.3072e+01		1.0000e+00
			5.45		1.3037e+01		1.0000e+00
			5.5		1.3002e+01		1.0000e+00
			5.55		1.2967e+01		1.0000e+00
			5.6		1.2931e+01		1.0000e+00
			5.65		1.2896e+01		1.0000e+00
			5.7		1.2861e+01		1.0000e+00
			5.75		1.2826e+01		1.0000e+00
			5.8		1.2791e+01		1.0000e+00
			5.85		1.2756e+01		1.0000e+00
			5.9		1.2722e+01		1.0000e+00
			5.95		1.2688e+01		1.0000e+00
			6.0		1.2654e+01		1.0000e+00
			6.05		1.2620e+01		1.0000e+00
			6.1		1.2586e+01		1.0000e+00
			6.15		1.2552e+01		1.0000e+00
			6.2		1.2519e+01		1.0000e+00
			6.25		1.2485e+01		1.0000e+00
			6.3		1.2451e+01		1.0000e+00
			6.35		1.2417e+01		1.0000e+00
			6.4		1.2384e+01		1.0000e+00
			6.45		1.2350e+01		1.0000e+00
			6.5		1.2317e+01		1.0000e+00
			6.55		1.2283e+01		1.0000e+00
			6.6		1.2250e+01		1.0000e+00
			6.65		1.2216e+01		1.0000e+00
			6.7		1.2184e+01		1.0000e+00
			6.75		1.2151e+01		1.0000e+00
			6.8		1.2118e+01		1.0000e+00
			6.85		1.2086e+01		1.0000e+00
			6.9		1.2053e+01		1.0000e+00
			6.95		1.2021e+01		1.0000e+00
			7.0		1.1988e+01		1.0000e+00
			7.05		1.1956e+01		1.0000e+00
			7.1		1.1924e+01		1.0000e+00
			7.15		1.1891e+01		1.0000e+00
			7.2		1.1859e+01		1.0000e+00
			7.25		1.1827e+01		1.0000e+00
			7.3		1.1795e+01		1.0000e+00
			7.35		1.1763e+01		1.0000e+00
			7.4		1.1731e+01		1.0000e+00
			7.45		1.1699e+01		1.0000e+00
			7.5		1.1668e+01		1.0000e+00
			7.55		1.1637e+01		1.0000e+00
			7.6		1.1606e+01		1.0000e+00
			7.65		1.1575e+01		1.0000e+00
			7.7		1.1545e+01		1.0000e+00
			7.75		1.1514e+01		1.0000e+00
			7.8		1.1484e+01		1.0000e+00
			7.85		1.1453e+01		1.0000e+00
			7.9		1.1423e+01		1.0000e+00
			7.95		1.1392e+01		1.0000e+00
			8.0		1.1362e+01		1.0000e+00
			8.05		1.1331e+01		1.0000e+00
			8.1		1.1301e+01		1.0000e+00
			8.15		1.1271e+01		1.0000e+00
			8.2		1.1240e+01		1.0000e+00
			8.25		1.1210e+01		1.0000e+00
			8.3		1.1180e+01		1.0000e+00
			8.35		1.1151e+01		1.0000e+00
			8.4		1.1121e+01		1.0000e+00
			8.45		1.1091e+01		1.0000e+00
			8.5		1.1062e+01		1.0000e+00
			8.55		1.1032e+01		1.0000e+00
			8.6		1.1003e+01		1.0000e+00
			8.65		1.0973e+01		1.0000e+00
			8.7		1.0944e+01		1.0000e+00
			8.75		1.0914e+01		1.0000e+00
			8.8		1.0885e+01		1.0000e+00
			8.85		1.0855e+01		1.0000e+00
			8.9		1.0826e+01		1.0000e+00
			8.95		1.0797e+01		1.0000e+00
			9.0		1.0768e+01		1.0000e+00
			9.05		1.0738e+01		1.0000e+00
			9.1		1.0710e+01		1.0000e+00
			9.15		1.0682e+01		1.0000e+00
			9.2		1.0654e+01		1.0000e+00
			9.25		1.0626e+01		1.0000e+00
			9.3		1.0598e+01		1.0000e+00
			9.35		1.0569e+01		1.0000e+00
			9.4		1.0541e+01		1.0000e+00
			9.45		1.0513e+01		1.0000e+00
			9.5		1.0485e+01		1.0000e+00
			9.55		1.0457e+01		1.0000e+00
			9.6		1.0430e+01		1.0000e+00
			9.65		1.0402e+01		1.0000e+00
			9.7		1.0374e+01		1.0000e+00
			9.75		1.0346e+01		1.0000e+00
			9.8		1.0318e+01		1.0000e+00
			9.85		1.0291e+01		1.0000e+00
			9.9		1.0264e+01		1.0000e+00
			9.95		1.0237e+01		1.0000e+00
			10.0		1.0210e+01		1.0000e+00
			10.05		1.0183e+01		1.0000e+00
			10.1		1.0156e+01		1.0000e+00
			10.15		1.0129e+01		1.0000e+00
			10.2		1.0103e+01		1.0000e+00
			10.25		1.0076e+01		1.0000e+00
			10.3		1.0049e+01		1.0000e+00
			10.35		1.0023e+01		1.0000e+00
			10.4		9.9960e+00		1.0000e+00
			10.45		9.9693e+00		1.0000e+00
			10.5		9.9429e+00		1.0000e+00
			10.55		9.9164e+00		1.0000e+00
			10.6		9.8899e+00		1.0000e+00
			10.65		9.8634e+00		1.0000e+00
			10.7		9.8375e+00		1.0000e+00
			10.75		9.8116e+00		1.0000e+00
			10.8		9.7857e+00		1.0000e+00
			10.85		9.7598e+00		1.0000e+00
			10.9		9.7341e+00		1.0000e+00
			10.95		9.7083e+00		1.0000e+00
			11.0		9.6826e+00		1.0000e+00
			11.05		9.6568e+00		1.0000e+00
			11.1		9.6312e+00		1.0000e+00
			11.15		9.6056e+00		1.0000e+00
			11.2		9.5800e+00		1.0000e+00
			11.25		9.5543e+00		1.0000e+00
			11.3		9.5288e+00		1.0000e+00
			11.35		9.5034e+00		1.0000e+00
			11.4		9.4779e+00		1.0000e+00
			11.45		9.4524e+00		1.0000e+00
			11.5		9.4278e+00		1.0000e+00
			11.55		9.4031e+00		1.0000e+00
			11.6		9.3785e+00		1.0000e+00
			11.65		9.3539e+00		1.0000e+00
			11.7		9.3293e+00		1.0000e+00
			11.75		9.3048e+00		1.0000e+00
			11.8		9.2803e+00		1.0000e+00
			11.85		9.2558e+00		1.0000e+00
			11.9		9.2315e+00		1.0000e+00
			11.95		9.2071e+00		1.0000e+00
			12.0		9.1827e+00		1.0000e+00
			12.05		9.1583e+00		1.0000e+00
			12.1		9.1341e+00		1.0000e+00
			12.15		9.1098e+00		1.0000e+00
			12.2		9.0856e+00		1.0000e+00
			12.25		9.0613e+00		1.0000e+00
			12.3		9.0375e+00		1.0000e+00
			12.35		9.0137e+00		1.0000e+00
			12.4		8.9898e+00		1.0000e+00
			12.45		8.9660e+00		1.0000e+00
			12.5		8.9423e+00		1.0000e+00
			12.55		8.9186e+00		1.0000e+00
			12.6		8.8948e+00		1.0000e+00
			12.65		8.8711e+00		1.0000e+00
			12.7		8.8475e+00		1.0000e+00
			12.75		8.8240e+00		1.0000e+00
			12.8		8.8004e+00		1.0000e+00
			12.85		8.7768e+00		1.0000e+00
			12.9		8.7533e+00		1.0000e+00
			12.95		8.7299e+00		1.0000e+00
			13.0		8.7064e+00		1.0000e+00
			13.05		8.6829e+00		1.0000e+00
			13.1		8.6603e+00		1.0000e+00
			13.15		8.6376e+00		1.0000e+00
			13.2		8.6149e+00		1.0000e+00
			13.25		8.5923e+00		1.0000e+00
			13.3		8.5697e+00		1.0000e+00
			13.35		8.5472e+00		1.0000e+00
			13.4		8.5246e+00		1.0000e+00
			13.45		8.5021e+00		1.0000e+00
			13.5		8.4797e+00		1.0000e+00
			13.55		8.4572e+00		1.0000e+00
			13.6		8.4348e+00		1.0000e+00
			13.65		8.4124e+00		1.0000e+00
			13.7		8.3901e+00		1.0000e+00
			13.75		8.3678e+00		1.0000e+00
			13.8		8.3455e+00		1.0000e+00
			13.85		8.3231e+00		1.0000e+00
			13.9		8.3015e+00		1.0000e+00
			13.95		8.2799e+00		1.0000e+00
			14.0		8.2583e+00		1.0000e+00
