BEGIN_SCAN_DATA
	FORMAT=CC-Export V1.9                  
	FILE_CREATION_DATE=
	LAST_MODIFIED=11-Jan-2023 11:56:47
	BEGIN_SCAN  1
		TASK_NAME=RayStation Phantom Profiles & PDDs
		PROGRAM=RayStation
		COMMENT=RayStation Script Export
		MEAS_DATE=11-Jan-2023 11:56:47
		LINAC=RayStation
		MODALITY=X
		ISOCENTER=1000.00
		INPLANE_AXIS=Y
		CROSSPLANE_AXIS=X
		DEPTH_AXIS=Z
		INPLANE_AXIS_DIR=GUN_TARGET
		CROSSPLANE_AXIS_DIR=LEFT_RIGHT
		DEPTH_AXIS_DIR=UP_DOWN
		ENERGY=6.3
		NOMINAL_DMAX=20.00
		SSD=1000.0
		SCD=1000.00
		WEDGE_ANGLE=0.00
		FIELD_INPLANE=150.0
		FIELD_CROSSPLANE=100.0
		FIELD_TYPE=IRREGULAR
		GANTRY=0.00
		GANTRY_UPRIGHT_POSITION=0
		GANTRY_ROTATION=CW
		COLL_ANGLE=0.00
		REF_FIELD_DEPTH=50.00
		REF_FIELD_DEFINED=ISOCENTER
		FIELD_INPLANE=150.0
		FIELD_CROSSPLANE=100.0
		SCAN_CURVETYPE=CROSSPLANE_PROFILE
		SCAN_DEPTH=20.0
		SCAN_OFFAXIS_INPLANE=0.00
		SCAN_OFFAXIS_CROSSPLANE=0.00
		SCAN_ANGLE=0.00
		SCAN_DIAGONAL=NOT_DIAGONAL
		SCAN_DIRECTION=NEGATIVE
		MEAS_MEDIUM=WATER
		MEAS_UNIT=cGy
		INCLINATION_ANGLE=0.00
		PRESSURE=1013.20
		TEMPERATURE=20.00
		NORM_TEMPERATURE=20.00
		CORRECTION_FACTOR=1.0000;
		BEGIN_DATA
			-30.05		0.0000e+00		1.0000e+00
			-30.0		0.0000e+00		1.0000e+00
			-29.95		0.0000e+00		1.0000e+00
			-29.9		0.0000e+00		1.0000e+00
			-29.85		0.0000e+00		1.0000e+00
			-29.8		0.0000e+00		1.0000e+00
			-29.75		0.0000e+00		1.0000e+00
			-29.7		0.0000e+00		1.0000e+00
			-29.65		0.0000e+00		1.0000e+00
			-29.6		0.0000e+00		1.0000e+00
			-29.55		0.0000e+00		1.0000e+00
			-29.5		0.0000e+00		1.0000e+00
			-29.45		0.0000e+00		1.0000e+00
			-29.4		0.0000e+00		1.0000e+00
			-29.35		0.0000e+00		1.0000e+00
			-29.3		0.0000e+00		1.0000e+00
			-29.25		0.0000e+00		1.0000e+00
			-29.2		0.0000e+00		1.0000e+00
			-29.15		0.0000e+00		1.0000e+00
			-29.1		0.0000e+00		1.0000e+00
			-29.05		0.0000e+00		1.0000e+00
			-29.0		0.0000e+00		1.0000e+00
			-28.95		0.0000e+00		1.0000e+00
			-28.9		0.0000e+00		1.0000e+00
			-28.85		0.0000e+00		1.0000e+00
			-28.8		0.0000e+00		1.0000e+00
			-28.75		1.4293e-09		1.0000e+00
			-28.7		1.5537e-05		1.0000e+00
			-28.65		3.1073e-05		1.0000e+00
			-28.6		4.6609e-05		1.0000e+00
			-28.55		6.2146e-05		1.0000e+00
			-28.5		9.3015e-05		1.0000e+00
			-28.45		1.2388e-04		1.0000e+00
			-28.4		1.5475e-04		1.0000e+00
			-28.35		1.8562e-04		1.0000e+00
			-28.3		1.8874e-04		1.0000e+00
			-28.25		1.9186e-04		1.0000e+00
			-28.2		1.9498e-04		1.0000e+00
			-28.15		1.9810e-04		1.0000e+00
			-28.1		2.0082e-04		1.0000e+00
			-28.05		2.0353e-04		1.0000e+00
			-28.0		2.0625e-04		1.0000e+00
			-27.95		2.0897e-04		1.0000e+00
			-27.9		2.1233e-04		1.0000e+00
			-27.85		2.1569e-04		1.0000e+00
			-27.8		2.1905e-04		1.0000e+00
			-27.75		2.2241e-04		1.0000e+00
			-27.7		2.2597e-04		1.0000e+00
			-27.65		2.2954e-04		1.0000e+00
			-27.6		2.3311e-04		1.0000e+00
			-27.55		2.3667e-04		1.0000e+00
			-27.5		2.3973e-04		1.0000e+00
			-27.45		2.4279e-04		1.0000e+00
			-27.4		2.4585e-04		1.0000e+00
			-27.35		2.4891e-04		1.0000e+00
			-27.3		2.5310e-04		1.0000e+00
			-27.25		2.5730e-04		1.0000e+00
			-27.2		2.6149e-04		1.0000e+00
			-27.15		2.6568e-04		1.0000e+00
			-27.1		2.6985e-04		1.0000e+00
			-27.05		2.7401e-04		1.0000e+00
			-27.0		2.7817e-04		1.0000e+00
			-26.95		2.8233e-04		1.0000e+00
			-26.9		2.8585e-04		1.0000e+00
			-26.85		2.8937e-04		1.0000e+00
			-26.8		2.9288e-04		1.0000e+00
			-26.75		2.9640e-04		1.0000e+00
			-26.7		3.0879e-04		1.0000e+00
			-26.65		3.2118e-04		1.0000e+00
			-26.6		3.3357e-04		1.0000e+00
			-26.55		3.4596e-04		1.0000e+00
			-26.5		3.7985e-04		1.0000e+00
			-26.45		4.1374e-04		1.0000e+00
			-26.4		4.4763e-04		1.0000e+00
			-26.35		4.8151e-04		1.0000e+00
			-26.3		5.1898e-04		1.0000e+00
			-26.25		5.5645e-04		1.0000e+00
			-26.2		5.9392e-04		1.0000e+00
			-26.15		6.3139e-04		1.0000e+00
			-26.1		6.7126e-04		1.0000e+00
			-26.05		7.1112e-04		1.0000e+00
			-26.0		7.5098e-04		1.0000e+00
			-25.95		7.9084e-04		1.0000e+00
			-25.9		8.2954e-04		1.0000e+00
			-25.85		8.6825e-04		1.0000e+00
			-25.8		9.0696e-04		1.0000e+00
			-25.75		9.4566e-04		1.0000e+00
			-25.7		9.8718e-04		1.0000e+00
			-25.65		1.0287e-03		1.0000e+00
			-25.6		1.0702e-03		1.0000e+00
			-25.55		1.1117e-03		1.0000e+00
			-25.5		1.1687e-03		1.0000e+00
			-25.45		1.2256e-03		1.0000e+00
			-25.4		1.2826e-03		1.0000e+00
			-25.35		1.3395e-03		1.0000e+00
			-25.3		1.3968e-03		1.0000e+00
			-25.25		1.4540e-03		1.0000e+00
			-25.2		1.5113e-03		1.0000e+00
			-25.15		1.5685e-03		1.0000e+00
			-25.1		1.6263e-03		1.0000e+00
			-25.05		1.6840e-03		1.0000e+00
			-25.0		1.7418e-03		1.0000e+00
			-24.95		1.7996e-03		1.0000e+00
			-24.9		1.8632e-03		1.0000e+00
			-24.85		1.9269e-03		1.0000e+00
			-24.8		1.9905e-03		1.0000e+00
			-24.75		2.0542e-03		1.0000e+00
			-24.7		2.1082e-03		1.0000e+00
			-24.65		2.1621e-03		1.0000e+00
			-24.6		2.2161e-03		1.0000e+00
			-24.55		2.2701e-03		1.0000e+00
			-24.5		2.2961e-03		1.0000e+00
			-24.45		2.3220e-03		1.0000e+00
			-24.4		2.3479e-03		1.0000e+00
			-24.35		2.3739e-03		1.0000e+00
			-24.3		2.3966e-03		1.0000e+00
			-24.25		2.4192e-03		1.0000e+00
			-24.2		2.4419e-03		1.0000e+00
			-24.15		2.4646e-03		1.0000e+00
			-24.1		2.4813e-03		1.0000e+00
			-24.05		2.4981e-03		1.0000e+00
			-24.0		2.5148e-03		1.0000e+00
			-23.95		2.5316e-03		1.0000e+00
			-23.9		2.5541e-03		1.0000e+00
			-23.85		2.5766e-03		1.0000e+00
			-23.8		2.5991e-03		1.0000e+00
			-23.75		2.6216e-03		1.0000e+00
			-23.7		2.6516e-03		1.0000e+00
			-23.65		2.6817e-03		1.0000e+00
			-23.6		2.7117e-03		1.0000e+00
			-23.55		2.7418e-03		1.0000e+00
			-23.5		2.7604e-03		1.0000e+00
			-23.45		2.7790e-03		1.0000e+00
			-23.4		2.7976e-03		1.0000e+00
			-23.35		2.8163e-03		1.0000e+00
			-23.3		2.8452e-03		1.0000e+00
			-23.25		2.8741e-03		1.0000e+00
			-23.2		2.9030e-03		1.0000e+00
			-23.15		2.9319e-03		1.0000e+00
			-23.1		2.9694e-03		1.0000e+00
			-23.05		3.0069e-03		1.0000e+00
			-23.0		3.0443e-03		1.0000e+00
			-22.95		3.0818e-03		1.0000e+00
			-22.9		3.1049e-03		1.0000e+00
			-22.85		3.1280e-03		1.0000e+00
			-22.8		3.1512e-03		1.0000e+00
			-22.75		3.1743e-03		1.0000e+00
			-22.7		3.2213e-03		1.0000e+00
			-22.65		3.2684e-03		1.0000e+00
			-22.6		3.3154e-03		1.0000e+00
			-22.55		3.3624e-03		1.0000e+00
			-22.5		3.4141e-03		1.0000e+00
			-22.45		3.4658e-03		1.0000e+00
			-22.4		3.5175e-03		1.0000e+00
			-22.35		3.5692e-03		1.0000e+00
			-22.3		3.6072e-03		1.0000e+00
			-22.25		3.6452e-03		1.0000e+00
			-22.2		3.6831e-03		1.0000e+00
			-22.15		3.7211e-03		1.0000e+00
			-22.1		3.7994e-03		1.0000e+00
			-22.05		3.8776e-03		1.0000e+00
			-22.0		3.9559e-03		1.0000e+00
			-21.95		4.0341e-03		1.0000e+00
			-21.9		4.1104e-03		1.0000e+00
			-21.85		4.1867e-03		1.0000e+00
			-21.8		4.2630e-03		1.0000e+00
			-21.75		4.3393e-03		1.0000e+00
			-21.7		4.3989e-03		1.0000e+00
			-21.65		4.4586e-03		1.0000e+00
			-21.6		4.5182e-03		1.0000e+00
			-21.55		4.5778e-03		1.0000e+00
			-21.5		4.7058e-03		1.0000e+00
			-21.45		4.8337e-03		1.0000e+00
			-21.4		4.9617e-03		1.0000e+00
			-21.35		5.0896e-03		1.0000e+00
			-21.3		5.1989e-03		1.0000e+00
			-21.25		5.3082e-03		1.0000e+00
			-21.2		5.4174e-03		1.0000e+00
			-21.15		5.5267e-03		1.0000e+00
			-21.1		5.6239e-03		1.0000e+00
			-21.05		5.7211e-03		1.0000e+00
			-21.0		5.8183e-03		1.0000e+00
			-20.95		5.9155e-03		1.0000e+00
			-20.9		6.1328e-03		1.0000e+00
			-20.85		6.3501e-03		1.0000e+00
			-20.8		6.5674e-03		1.0000e+00
			-20.75		6.7847e-03		1.0000e+00
			-20.7		6.9472e-03		1.0000e+00
			-20.65		7.1098e-03		1.0000e+00
			-20.6		7.2723e-03		1.0000e+00
			-20.55		7.4348e-03		1.0000e+00
			-20.5		7.6014e-03		1.0000e+00
			-20.45		7.7680e-03		1.0000e+00
			-20.4		7.9346e-03		1.0000e+00
			-20.35		8.1012e-03		1.0000e+00
			-20.3		8.4453e-03		1.0000e+00
			-20.25		8.7894e-03		1.0000e+00
			-20.2		9.1335e-03		1.0000e+00
			-20.15		9.4776e-03		1.0000e+00
			-20.1		9.7145e-03		1.0000e+00
			-20.05		9.9513e-03		1.0000e+00
			-20.0		1.0188e-02		1.0000e+00
			-19.95		1.0425e-02		1.0000e+00
			-19.9		1.0704e-02		1.0000e+00
			-19.85		1.0984e-02		1.0000e+00
			-19.8		1.1263e-02		1.0000e+00
			-19.75		1.1543e-02		1.0000e+00
			-19.7		1.2101e-02		1.0000e+00
			-19.65		1.2660e-02		1.0000e+00
			-19.6		1.3218e-02		1.0000e+00
			-19.55		1.3777e-02		1.0000e+00
			-19.5		1.4145e-02		1.0000e+00
			-19.45		1.4514e-02		1.0000e+00
			-19.4		1.4882e-02		1.0000e+00
			-19.35		1.5251e-02		1.0000e+00
			-19.3		1.5749e-02		1.0000e+00
			-19.25		1.6247e-02		1.0000e+00
			-19.2		1.6745e-02		1.0000e+00
			-19.15		1.7244e-02		1.0000e+00
			-19.1		1.8136e-02		1.0000e+00
			-19.05		1.9028e-02		1.0000e+00
			-19.0		1.9920e-02		1.0000e+00
			-18.95		2.0812e-02		1.0000e+00
			-18.9		2.1376e-02		1.0000e+00
			-18.85		2.1940e-02		1.0000e+00
			-18.8		2.2505e-02		1.0000e+00
			-18.75		2.3069e-02		1.0000e+00
			-18.7		2.3973e-02		1.0000e+00
			-18.65		2.4878e-02		1.0000e+00
			-18.6		2.5782e-02		1.0000e+00
			-18.55		2.6692e-02		1.0000e+00
			-18.5		8.1246e-02		1.0000e+00
			-18.45		1.3580e-01		1.0000e+00
			-18.4		1.9035e-01		1.0000e+00
			-18.35		2.4491e-01		1.0000e+00
			-18.3		2.9947e-01		1.0000e+00
			-18.25		3.5404e-01		1.0000e+00
			-18.2		4.0861e-01		1.0000e+00
			-18.15		4.6317e-01		1.0000e+00
			-18.1		4.6565e-01		1.0000e+00
			-18.05		4.6813e-01		1.0000e+00
			-18.0		4.7061e-01		1.0000e+00
			-17.95		4.7309e-01		1.0000e+00
			-17.9		4.7558e-01		1.0000e+00
			-17.85		4.7806e-01		1.0000e+00
			-17.8		4.8055e-01		1.0000e+00
			-17.75		4.8304e-01		1.0000e+00
			-17.7		4.8549e-01		1.0000e+00
			-17.65		4.8795e-01		1.0000e+00
			-17.6		4.9040e-01		1.0000e+00
			-17.55		4.9286e-01		1.0000e+00
			-17.5		4.9535e-01		1.0000e+00
			-17.45		4.9784e-01		1.0000e+00
			-17.4		5.0033e-01		1.0000e+00
			-17.35		5.0282e-01		1.0000e+00
			-17.3		5.0581e-01		1.0000e+00
			-17.25		5.0879e-01		1.0000e+00
			-17.2		5.1177e-01		1.0000e+00
			-17.15		5.1476e-01		1.0000e+00
			-17.1		5.1768e-01		1.0000e+00
			-17.05		5.2061e-01		1.0000e+00
			-17.0		5.2353e-01		1.0000e+00
			-16.95		5.2646e-01		1.0000e+00
			-16.9		5.2946e-01		1.0000e+00
			-16.85		5.3247e-01		1.0000e+00
			-16.8		5.3548e-01		1.0000e+00
			-16.75		5.3849e-01		1.0000e+00
			-16.7		5.4148e-01		1.0000e+00
			-16.65		5.4448e-01		1.0000e+00
			-16.6		5.4748e-01		1.0000e+00
			-16.55		5.5048e-01		1.0000e+00
			-16.5		5.5413e-01		1.0000e+00
			-16.45		5.5779e-01		1.0000e+00
			-16.4		5.6145e-01		1.0000e+00
			-16.35		5.6510e-01		1.0000e+00
			-16.3		5.6885e-01		1.0000e+00
			-16.25		5.7260e-01		1.0000e+00
			-16.2		5.7635e-01		1.0000e+00
			-16.15		5.8010e-01		1.0000e+00
			-16.1		5.8380e-01		1.0000e+00
			-16.05		5.8750e-01		1.0000e+00
			-16.0		5.9120e-01		1.0000e+00
			-15.95		5.9491e-01		1.0000e+00
			-15.9		5.9865e-01		1.0000e+00
			-15.85		6.0239e-01		1.0000e+00
			-15.8		6.0613e-01		1.0000e+00
			-15.75		6.0988e-01		1.0000e+00
			-15.7		6.1564e-01		1.0000e+00
			-15.65		6.2140e-01		1.0000e+00
			-15.6		6.2716e-01		1.0000e+00
			-15.55		6.3292e-01		1.0000e+00
			-15.5		6.3864e-01		1.0000e+00
			-15.45		6.4437e-01		1.0000e+00
			-15.4		6.5009e-01		1.0000e+00
			-15.35		6.5581e-01		1.0000e+00
			-15.3		6.6156e-01		1.0000e+00
			-15.25		6.6731e-01		1.0000e+00
			-15.2		6.7306e-01		1.0000e+00
			-15.15		6.7880e-01		1.0000e+00
			-15.1		6.8466e-01		1.0000e+00
			-15.05		6.9051e-01		1.0000e+00
			-15.0		6.9637e-01		1.0000e+00
			-14.95		7.0222e-01		1.0000e+00
			-14.9		7.0993e-01		1.0000e+00
			-14.85		7.1764e-01		1.0000e+00
			-14.8		7.2535e-01		1.0000e+00
			-14.75		7.3306e-01		1.0000e+00
			-14.7		7.4083e-01		1.0000e+00
			-14.65		7.4860e-01		1.0000e+00
			-14.6		7.5636e-01		1.0000e+00
			-14.55		7.6413e-01		1.0000e+00
			-14.5		7.7200e-01		1.0000e+00
			-14.45		7.7987e-01		1.0000e+00
			-14.4		7.8774e-01		1.0000e+00
			-14.35		7.9561e-01		1.0000e+00
			-14.3		8.0331e-01		1.0000e+00
			-14.25		8.1102e-01		1.0000e+00
			-14.2		8.1873e-01		1.0000e+00
			-14.15		8.2643e-01		1.0000e+00
			-14.1		8.4500e-01		1.0000e+00
			-14.05		8.6357e-01		1.0000e+00
			-14.0		8.8213e-01		1.0000e+00
			-13.95		9.0070e-01		1.0000e+00
			-13.9		9.1928e-01		1.0000e+00
			-13.85		9.3785e-01		1.0000e+00
			-13.8		9.5643e-01		1.0000e+00
			-13.75		9.7501e-01		1.0000e+00
			-13.7		9.9341e-01		1.0000e+00
			-13.65		1.0118e+00		1.0000e+00
			-13.6		1.0302e+00		1.0000e+00
			-13.55		1.0486e+00		1.0000e+00
			-13.5		1.0672e+00		1.0000e+00
			-13.45		1.0859e+00		1.0000e+00
			-13.4		1.1045e+00		1.0000e+00
			-13.35		1.1231e+00		1.0000e+00
			-13.3		1.1439e+00		1.0000e+00
			-13.25		1.1647e+00		1.0000e+00
			-13.2		1.1855e+00		1.0000e+00
			-13.15		1.2063e+00		1.0000e+00
			-13.1		1.2267e+00		1.0000e+00
			-13.05		1.2472e+00		1.0000e+00
			-13.0		1.2676e+00		1.0000e+00
			-12.95		1.2880e+00		1.0000e+00
			-12.9		1.3088e+00		1.0000e+00
			-12.85		1.3295e+00		1.0000e+00
			-12.8		1.3503e+00		1.0000e+00
			-12.75		1.3710e+00		1.0000e+00
			-12.7		1.3919e+00		1.0000e+00
			-12.65		1.4127e+00		1.0000e+00
			-12.6		1.4335e+00		1.0000e+00
			-12.55		1.4543e+00		1.0000e+00
			-12.5		1.4757e+00		1.0000e+00
			-12.45		1.4971e+00		1.0000e+00
			-12.4		1.5184e+00		1.0000e+00
			-12.35		1.5398e+00		1.0000e+00
			-12.3		1.5614e+00		1.0000e+00
			-12.25		1.5830e+00		1.0000e+00
			-12.2		1.6046e+00		1.0000e+00
			-12.15		1.6263e+00		1.0000e+00
			-12.1		1.6480e+00		1.0000e+00
			-12.05		1.6697e+00		1.0000e+00
			-12.0		1.6914e+00		1.0000e+00
			-11.95		1.7131e+00		1.0000e+00
			-11.9		1.7344e+00		1.0000e+00
			-11.85		1.7557e+00		1.0000e+00
			-11.8		1.7771e+00		1.0000e+00
			-11.75		1.7984e+00		1.0000e+00
			-11.7		1.8273e+00		1.0000e+00
			-11.65		1.8563e+00		1.0000e+00
			-11.6		1.8852e+00		1.0000e+00
			-11.55		1.9141e+00		1.0000e+00
			-11.5		1.9432e+00		1.0000e+00
			-11.45		1.9723e+00		1.0000e+00
			-11.4		2.0014e+00		1.0000e+00
			-11.35		2.0305e+00		1.0000e+00
			-11.3		2.0590e+00		1.0000e+00
			-11.25		2.0875e+00		1.0000e+00
			-11.2		2.1160e+00		1.0000e+00
			-11.15		2.1445e+00		1.0000e+00
			-11.1		2.1735e+00		1.0000e+00
			-11.05		2.2025e+00		1.0000e+00
			-11.0		2.2315e+00		1.0000e+00
			-10.95		2.2605e+00		1.0000e+00
			-10.9		2.2944e+00		1.0000e+00
			-10.85		2.3284e+00		1.0000e+00
			-10.8		2.3623e+00		1.0000e+00
			-10.75		2.3963e+00		1.0000e+00
			-10.7		2.4305e+00		1.0000e+00
			-10.65		2.4646e+00		1.0000e+00
			-10.6		2.4988e+00		1.0000e+00
			-10.55		2.5330e+00		1.0000e+00
			-10.5		2.5672e+00		1.0000e+00
			-10.45		2.6015e+00		1.0000e+00
			-10.4		2.6357e+00		1.0000e+00
			-10.35		2.6699e+00		1.0000e+00
			-10.3		2.7039e+00		1.0000e+00
			-10.25		2.7380e+00		1.0000e+00
			-10.2		2.7720e+00		1.0000e+00
			-10.15		2.8060e+00		1.0000e+00
			-10.1		2.8471e+00		1.0000e+00
			-10.05		2.8881e+00		1.0000e+00
			-10.0		2.9292e+00		1.0000e+00
			-9.95		2.9702e+00		1.0000e+00
			-9.9		3.0116e+00		1.0000e+00
			-9.85		3.0529e+00		1.0000e+00
			-9.8		3.0943e+00		1.0000e+00
			-9.75		3.1356e+00		1.0000e+00
			-9.7		3.1766e+00		1.0000e+00
			-9.65		3.2176e+00		1.0000e+00
			-9.6		3.2586e+00		1.0000e+00
			-9.55		3.2995e+00		1.0000e+00
			-9.5		3.3408e+00		1.0000e+00
			-9.45		3.3821e+00		1.0000e+00
			-9.4		3.4234e+00		1.0000e+00
			-9.35		3.4647e+00		1.0000e+00
			-9.3		3.5334e+00		1.0000e+00
			-9.25		3.6021e+00		1.0000e+00
			-9.2		3.6708e+00		1.0000e+00
			-9.15		3.7395e+00		1.0000e+00
			-9.1		3.8077e+00		1.0000e+00
			-9.05		3.8759e+00		1.0000e+00
			-9.0		3.9441e+00		1.0000e+00
			-8.95		4.0123e+00		1.0000e+00
			-8.9		4.0814e+00		1.0000e+00
			-8.85		4.1505e+00		1.0000e+00
			-8.8		4.2196e+00		1.0000e+00
			-8.75		4.2887e+00		1.0000e+00
			-8.7		4.3575e+00		1.0000e+00
			-8.65		4.4264e+00		1.0000e+00
			-8.6		4.4952e+00		1.0000e+00
			-8.55		4.5640e+00		1.0000e+00
			-8.5		4.8214e+00		1.0000e+00
			-8.45		5.0788e+00		1.0000e+00
			-8.4		5.3361e+00		1.0000e+00
			-8.35		5.5935e+00		1.0000e+00
			-8.3		5.8512e+00		1.0000e+00
			-8.25		6.1089e+00		1.0000e+00
			-8.2		6.3666e+00		1.0000e+00
			-8.15		6.6243e+00		1.0000e+00
			-8.1		7.7955e+00		1.0000e+00
			-8.05		8.9666e+00		1.0000e+00
			-8.0		1.0138e+01		1.0000e+00
			-7.95		1.1309e+01		1.0000e+00
			-7.9		1.7017e+01		1.0000e+00
			-7.85		2.2725e+01		1.0000e+00
			-7.8		2.8432e+01		1.0000e+00
			-7.75		3.4140e+01		1.0000e+00
			-7.7		4.1328e+01		1.0000e+00
			-7.65		4.8516e+01		1.0000e+00
			-7.6		5.5704e+01		1.0000e+00
			-7.55		6.2892e+01		1.0000e+00
			-7.5		6.5239e+01		1.0000e+00
			-7.45		6.7586e+01		1.0000e+00
			-7.4		6.9933e+01		1.0000e+00
			-7.35		7.2280e+01		1.0000e+00
			-7.3		7.2927e+01		1.0000e+00
			-7.25		7.3575e+01		1.0000e+00
			-7.2		7.4222e+01		1.0000e+00
			-7.15		7.4869e+01		1.0000e+00
			-7.1		7.5148e+01		1.0000e+00
			-7.05		7.5426e+01		1.0000e+00
			-7.0		7.5705e+01		1.0000e+00
			-6.95		7.5984e+01		1.0000e+00
			-6.9		7.6105e+01		1.0000e+00
			-6.85		7.6227e+01		1.0000e+00
			-6.8		7.6348e+01		1.0000e+00
			-6.75		7.6470e+01		1.0000e+00
			-6.7		7.6541e+01		1.0000e+00
			-6.65		7.6613e+01		1.0000e+00
			-6.6		7.6685e+01		1.0000e+00
			-6.55		7.6757e+01		1.0000e+00
			-6.5		7.6795e+01		1.0000e+00
			-6.45		7.6833e+01		1.0000e+00
			-6.4		7.6872e+01		1.0000e+00
			-6.35		7.6910e+01		1.0000e+00
			-6.3		7.6949e+01		1.0000e+00
			-6.25		7.6988e+01		1.0000e+00
			-6.2		7.7027e+01		1.0000e+00
			-6.15		7.7065e+01		1.0000e+00
			-6.1		7.7079e+01		1.0000e+00
			-6.05		7.7093e+01		1.0000e+00
			-6.0		7.7107e+01		1.0000e+00
			-5.95		7.7120e+01		1.0000e+00
			-5.9		7.7150e+01		1.0000e+00
			-5.85		7.7180e+01		1.0000e+00
			-5.8		7.7210e+01		1.0000e+00
			-5.75		7.7240e+01		1.0000e+00
			-5.7		7.7248e+01		1.0000e+00
			-5.65		7.7256e+01		1.0000e+00
			-5.6		7.7264e+01		1.0000e+00
			-5.55		7.7272e+01		1.0000e+00
			-5.5		7.7291e+01		1.0000e+00
			-5.45		7.7311e+01		1.0000e+00
			-5.4		7.7330e+01		1.0000e+00
			-5.35		7.7350e+01		1.0000e+00
			-5.3		7.7360e+01		1.0000e+00
			-5.25		7.7370e+01		1.0000e+00
			-5.2		7.7380e+01		1.0000e+00
			-5.15		7.7389e+01		1.0000e+00
			-5.1		7.7401e+01		1.0000e+00
			-5.05		7.7413e+01		1.0000e+00
			-5.0		7.7425e+01		1.0000e+00
			-4.95		7.7437e+01		1.0000e+00
			-4.9		7.7434e+01		1.0000e+00
			-4.85		7.7431e+01		1.0000e+00
			-4.8		7.7428e+01		1.0000e+00
			-4.75		7.7425e+01		1.0000e+00
			-4.7		7.7436e+01		1.0000e+00
			-4.65		7.7447e+01		1.0000e+00
			-4.6		7.7458e+01		1.0000e+00
			-4.55		7.7469e+01		1.0000e+00
			-4.5		7.7482e+01		1.0000e+00
			-4.45		7.7495e+01		1.0000e+00
			-4.4		7.7508e+01		1.0000e+00
			-4.35		7.7521e+01		1.0000e+00
			-4.3		7.7512e+01		1.0000e+00
			-4.25		7.7502e+01		1.0000e+00
			-4.2		7.7493e+01		1.0000e+00
			-4.15		7.7483e+01		1.0000e+00
			-4.1		7.7492e+01		1.0000e+00
			-4.05		7.7500e+01		1.0000e+00
			-4.0		7.7509e+01		1.0000e+00
			-3.95		7.7517e+01		1.0000e+00
			-3.9		7.7506e+01		1.0000e+00
			-3.85		7.7496e+01		1.0000e+00
			-3.8		7.7485e+01		1.0000e+00
			-3.75		7.7474e+01		1.0000e+00
			-3.7		7.7474e+01		1.0000e+00
			-3.65		7.7473e+01		1.0000e+00
			-3.6		7.7473e+01		1.0000e+00
			-3.55		7.7472e+01		1.0000e+00
			-3.5		7.7479e+01		1.0000e+00
			-3.45		7.7486e+01		1.0000e+00
			-3.4		7.7492e+01		1.0000e+00
			-3.35		7.7499e+01		1.0000e+00
			-3.3		7.7499e+01		1.0000e+00
			-3.25		7.7500e+01		1.0000e+00
			-3.2		7.7500e+01		1.0000e+00
			-3.15		7.7500e+01		1.0000e+00
			-3.1		7.7484e+01		1.0000e+00
			-3.05		7.7468e+01		1.0000e+00
			-3.0		7.7452e+01		1.0000e+00
			-2.95		7.7436e+01		1.0000e+00
			-2.9		7.7436e+01		1.0000e+00
			-2.85		7.7437e+01		1.0000e+00
			-2.8		7.7437e+01		1.0000e+00
			-2.75		7.7438e+01		1.0000e+00
			-2.7		7.7435e+01		1.0000e+00
			-2.65		7.7431e+01		1.0000e+00
			-2.6		7.7428e+01		1.0000e+00
			-2.55		7.7425e+01		1.0000e+00
			-2.5		7.7411e+01		1.0000e+00
			-2.45		7.7397e+01		1.0000e+00
			-2.4		7.7383e+01		1.0000e+00
			-2.35		7.7369e+01		1.0000e+00
			-2.3		7.7366e+01		1.0000e+00
			-2.25		7.7363e+01		1.0000e+00
			-2.2		7.7360e+01		1.0000e+00
			-2.15		7.7358e+01		1.0000e+00
			-2.1		7.7352e+01		1.0000e+00
			-2.05		7.7347e+01		1.0000e+00
			-2.0		7.7342e+01		1.0000e+00
			-1.95		7.7337e+01		1.0000e+00
			-1.9		7.7313e+01		1.0000e+00
			-1.85		7.7290e+01		1.0000e+00
			-1.8		7.7266e+01		1.0000e+00
			-1.75		7.7242e+01		1.0000e+00
			-1.7		7.7235e+01		1.0000e+00
			-1.65		7.7228e+01		1.0000e+00
			-1.6		7.7222e+01		1.0000e+00
			-1.55		7.7215e+01		1.0000e+00
			-1.5		7.7190e+01		1.0000e+00
			-1.45		7.7164e+01		1.0000e+00
			-1.4		7.7139e+01		1.0000e+00
			-1.35		7.7114e+01		1.0000e+00
			-1.3		7.7103e+01		1.0000e+00
			-1.25		7.7091e+01		1.0000e+00
			-1.2		7.7079e+01		1.0000e+00
			-1.15		7.7068e+01		1.0000e+00
			-1.1		7.7059e+01		1.0000e+00
			-1.05		7.7050e+01		1.0000e+00
			-1.0		7.7041e+01		1.0000e+00
			-0.95		7.7032e+01		1.0000e+00
			-0.9		7.7005e+01		1.0000e+00
			-0.85		7.6979e+01		1.0000e+00
			-0.8		7.6952e+01		1.0000e+00
			-0.75		7.6925e+01		1.0000e+00
			-0.7		7.6915e+01		1.0000e+00
			-0.65		7.6906e+01		1.0000e+00
			-0.6		7.6896e+01		1.0000e+00
			-0.55		7.6886e+01		1.0000e+00
			-0.5		7.6860e+01		1.0000e+00
			-0.45		7.6834e+01		1.0000e+00
			-0.4		7.6808e+01		1.0000e+00
			-0.35		7.6782e+01		1.0000e+00
			-0.3		7.6769e+01		1.0000e+00
			-0.25		7.6756e+01		1.0000e+00
			-0.2		7.6743e+01		1.0000e+00
			-0.15		7.6730e+01		1.0000e+00
			-0.1		7.6730e+01		1.0000e+00
			-0.05		7.6730e+01		1.0000e+00
			0.0		7.6730e+01		1.0000e+00
			0.05		7.6730e+01		1.0000e+00
			0.1		7.6743e+01		1.0000e+00
			0.15		7.6756e+01		1.0000e+00
			0.2		7.6769e+01		1.0000e+00
			0.25		7.6782e+01		1.0000e+00
			0.3		7.6808e+01		1.0000e+00
			0.35		7.6835e+01		1.0000e+00
			0.4		7.6861e+01		1.0000e+00
			0.45		7.6888e+01		1.0000e+00
			0.5		7.6897e+01		1.0000e+00
			0.55		7.6906e+01		1.0000e+00
			0.6		7.6915e+01		1.0000e+00
			0.65		7.6924e+01		1.0000e+00
			0.7		7.6951e+01		1.0000e+00
			0.75		7.6978e+01		1.0000e+00
			0.8		7.7005e+01		1.0000e+00
			0.85		7.7032e+01		1.0000e+00
			0.9		7.7041e+01		1.0000e+00
			0.95		7.7050e+01		1.0000e+00
			1.0		7.7058e+01		1.0000e+00
			1.05		7.7067e+01		1.0000e+00
			1.1		7.7078e+01		1.0000e+00
			1.15		7.7088e+01		1.0000e+00
			1.2		7.7099e+01		1.0000e+00
			1.25		7.7110e+01		1.0000e+00
			1.3		7.7134e+01		1.0000e+00
			1.35		7.7159e+01		1.0000e+00
			1.4		7.7183e+01		1.0000e+00
			1.45		7.7207e+01		1.0000e+00
			1.5		7.7216e+01		1.0000e+00
			1.55		7.7225e+01		1.0000e+00
			1.6		7.7233e+01		1.0000e+00
			1.65		7.7242e+01		1.0000e+00
			1.7		7.7265e+01		1.0000e+00
			1.75		7.7289e+01		1.0000e+00
			1.8		7.7312e+01		1.0000e+00
			1.85		7.7335e+01		1.0000e+00
			1.9		7.7340e+01		1.0000e+00
			1.95		7.7345e+01		1.0000e+00
			2.0		7.7350e+01		1.0000e+00
			2.05		7.7356e+01		1.0000e+00
			2.1		7.7358e+01		1.0000e+00
			2.15		7.7360e+01		1.0000e+00
			2.2		7.7363e+01		1.0000e+00
			2.25		7.7365e+01		1.0000e+00
			2.3		7.7381e+01		1.0000e+00
			2.35		7.7396e+01		1.0000e+00
			2.4		7.7411e+01		1.0000e+00
			2.45		7.7426e+01		1.0000e+00
			2.5		7.7429e+01		1.0000e+00
			2.55		7.7432e+01		1.0000e+00
			2.6		7.7435e+01		1.0000e+00
			2.65		7.7439e+01		1.0000e+00
			2.7		7.7438e+01		1.0000e+00
			2.75		7.7437e+01		1.0000e+00
			2.8		7.7436e+01		1.0000e+00
			2.85		7.7435e+01		1.0000e+00
			2.9		7.7451e+01		1.0000e+00
			2.95		7.7467e+01		1.0000e+00
			3.0		7.7482e+01		1.0000e+00
			3.05		7.7498e+01		1.0000e+00
			3.1		7.7496e+01		1.0000e+00
			3.15		7.7493e+01		1.0000e+00
			3.2		7.7491e+01		1.0000e+00
			3.25		7.7489e+01		1.0000e+00
			3.3		7.7487e+01		1.0000e+00
			3.35		7.7486e+01		1.0000e+00
			3.4		7.7484e+01		1.0000e+00
			3.45		7.7483e+01		1.0000e+00
			3.5		7.7483e+01		1.0000e+00
			3.55		7.7483e+01		1.0000e+00
			3.6		7.7482e+01		1.0000e+00
			3.65		7.7482e+01		1.0000e+00
			3.7		7.7489e+01		1.0000e+00
			3.75		7.7495e+01		1.0000e+00
			3.8		7.7502e+01		1.0000e+00
			3.85		7.7509e+01		1.0000e+00
			3.9		7.7501e+01		1.0000e+00
			3.95		7.7494e+01		1.0000e+00
			4.0		7.7487e+01		1.0000e+00
			4.05		7.7480e+01		1.0000e+00
			4.1		7.7489e+01		1.0000e+00
			4.15		7.7499e+01		1.0000e+00
			4.2		7.7509e+01		1.0000e+00
			4.25		7.7518e+01		1.0000e+00
			4.3		7.7511e+01		1.0000e+00
			4.35		7.7503e+01		1.0000e+00
			4.4		7.7496e+01		1.0000e+00
			4.45		7.7488e+01		1.0000e+00
			4.5		7.7470e+01		1.0000e+00
			4.55		7.7453e+01		1.0000e+00
			4.6		7.7435e+01		1.0000e+00
			4.65		7.7417e+01		1.0000e+00
			4.7		7.7422e+01		1.0000e+00
			4.75		7.7427e+01		1.0000e+00
			4.8		7.7432e+01		1.0000e+00
			4.85		7.7436e+01		1.0000e+00
			4.9		7.7423e+01		1.0000e+00
			4.95		7.7410e+01		1.0000e+00
			5.0		7.7397e+01		1.0000e+00
			5.05		7.7383e+01		1.0000e+00
			5.1		7.7380e+01		1.0000e+00
			5.15		7.7376e+01		1.0000e+00
			5.2		7.7372e+01		1.0000e+00
			5.25		7.7368e+01		1.0000e+00
			5.3		7.7346e+01		1.0000e+00
			5.35		7.7323e+01		1.0000e+00
			5.4		7.7301e+01		1.0000e+00
			5.45		7.7278e+01		1.0000e+00
			5.5		7.7267e+01		1.0000e+00
			5.55		7.7255e+01		1.0000e+00
			5.6		7.7244e+01		1.0000e+00
			5.65		7.7232e+01		1.0000e+00
			5.7		7.7204e+01		1.0000e+00
			5.75		7.7175e+01		1.0000e+00
			5.8		7.7147e+01		1.0000e+00
			5.85		7.7119e+01		1.0000e+00
			5.9		7.7104e+01		1.0000e+00
			5.95		7.7090e+01		1.0000e+00
			6.0		7.7075e+01		1.0000e+00
			6.05		7.7061e+01		1.0000e+00
			6.1		7.7028e+01		1.0000e+00
			6.15		7.6996e+01		1.0000e+00
			6.2		7.6963e+01		1.0000e+00
			6.25		7.6930e+01		1.0000e+00
			6.3		7.6885e+01		1.0000e+00
			6.35		7.6839e+01		1.0000e+00
			6.4		7.6793e+01		1.0000e+00
			6.45		7.6747e+01		1.0000e+00
			6.5		7.6677e+01		1.0000e+00
			6.55		7.6607e+01		1.0000e+00
			6.6		7.6536e+01		1.0000e+00
			6.65		7.6466e+01		1.0000e+00
			6.7		7.6343e+01		1.0000e+00
			6.75		7.6220e+01		1.0000e+00
			6.8		7.6098e+01		1.0000e+00
			6.85		7.5975e+01		1.0000e+00
			6.9		7.5702e+01		1.0000e+00
			6.95		7.5428e+01		1.0000e+00
			7.0		7.5155e+01		1.0000e+00
			7.05		7.4881e+01		1.0000e+00
			7.1		7.4232e+01		1.0000e+00
			7.15		7.3583e+01		1.0000e+00
			7.2		7.2934e+01		1.0000e+00
			7.25		7.2285e+01		1.0000e+00
			7.3		6.9935e+01		1.0000e+00
			7.35		6.7586e+01		1.0000e+00
			7.4		6.5236e+01		1.0000e+00
			7.45		6.2886e+01		1.0000e+00
			7.5		5.5699e+01		1.0000e+00
			7.55		4.8513e+01		1.0000e+00
			7.6		4.1326e+01		1.0000e+00
			7.65		3.4139e+01		1.0000e+00
			7.7		2.8432e+01		1.0000e+00
			7.75		2.2724e+01		1.0000e+00
			7.8		1.7016e+01		1.0000e+00
			7.85		1.1309e+01		1.0000e+00
			7.9		1.0138e+01		1.0000e+00
			7.95		8.9675e+00		1.0000e+00
			8.0		7.7967e+00		1.0000e+00
			8.05		6.6259e+00		1.0000e+00
			8.1		6.2712e+00		1.0000e+00
			8.15		5.9165e+00		1.0000e+00
			8.2		5.5618e+00		1.0000e+00
			8.25		5.2071e+00		1.0000e+00
			8.3		5.1113e+00		1.0000e+00
			8.35		5.0154e+00		1.0000e+00
			8.4		4.9196e+00		1.0000e+00
			8.45		4.8237e+00		1.0000e+00
			8.5		4.7274e+00		1.0000e+00
			8.55		4.6311e+00		1.0000e+00
			8.6		4.5347e+00		1.0000e+00
			8.65		4.4384e+00		1.0000e+00
			8.7		4.3421e+00		1.0000e+00
			8.75		4.2458e+00		1.0000e+00
			8.8		4.1496e+00		1.0000e+00
			8.85		4.0533e+00		1.0000e+00
			8.9		3.9575e+00		1.0000e+00
			8.95		3.8617e+00		1.0000e+00
			9.0		3.7659e+00		1.0000e+00
			9.05		3.6701e+00		1.0000e+00
			9.1		3.6253e+00		1.0000e+00
			9.15		3.5804e+00		1.0000e+00
			9.2		3.5356e+00		1.0000e+00
			9.25		3.4908e+00		1.0000e+00
			9.3		3.4461e+00		1.0000e+00
			9.35		3.4014e+00		1.0000e+00
			9.4		3.3567e+00		1.0000e+00
			9.45		3.3120e+00		1.0000e+00
			9.5		3.2678e+00		1.0000e+00
			9.55		3.2236e+00		1.0000e+00
			9.6		3.1793e+00		1.0000e+00
			9.65		3.1351e+00		1.0000e+00
			9.7		3.0906e+00		1.0000e+00
			9.75		3.0460e+00		1.0000e+00
			9.8		3.0014e+00		1.0000e+00
			9.85		2.9568e+00		1.0000e+00
			9.9		2.9209e+00		1.0000e+00
			9.95		2.8850e+00		1.0000e+00
			10.0		2.8491e+00		1.0000e+00
			10.05		2.8132e+00		1.0000e+00
			10.1		2.7776e+00		1.0000e+00
			10.15		2.7421e+00		1.0000e+00
			10.2		2.7065e+00		1.0000e+00
			10.25		2.6709e+00		1.0000e+00
			10.3		2.6351e+00		1.0000e+00
			10.35		2.5993e+00		1.0000e+00
			10.4		2.5635e+00		1.0000e+00
			10.45		2.5277e+00		1.0000e+00
			10.5		2.4921e+00		1.0000e+00
			10.55		2.4565e+00		1.0000e+00
			10.6		2.4209e+00		1.0000e+00
			10.65		2.3854e+00		1.0000e+00
			10.7		2.3556e+00		1.0000e+00
			10.75		2.3258e+00		1.0000e+00
			10.8		2.2960e+00		1.0000e+00
			10.85		2.2662e+00		1.0000e+00
			10.9		2.2363e+00		1.0000e+00
			10.95		2.2063e+00		1.0000e+00
			11.0		2.1764e+00		1.0000e+00
			11.05		2.1465e+00		1.0000e+00
			11.1		2.1170e+00		1.0000e+00
			11.15		2.0876e+00		1.0000e+00
			11.2		2.0581e+00		1.0000e+00
			11.25		2.0286e+00		1.0000e+00
			11.3		1.9988e+00		1.0000e+00
			11.35		1.9689e+00		1.0000e+00
			11.4		1.9390e+00		1.0000e+00
			11.45		1.9092e+00		1.0000e+00
			11.5		1.8851e+00		1.0000e+00
			11.55		1.8611e+00		1.0000e+00
			11.6		1.8371e+00		1.0000e+00
			11.65		1.8130e+00		1.0000e+00
			11.7		1.7893e+00		1.0000e+00
			11.75		1.7655e+00		1.0000e+00
			11.8		1.7417e+00		1.0000e+00
			11.85		1.7180e+00		1.0000e+00
			11.9		1.6939e+00		1.0000e+00
			11.95		1.6699e+00		1.0000e+00
			12.0		1.6459e+00		1.0000e+00
			12.05		1.6219e+00		1.0000e+00
			12.1		1.5979e+00		1.0000e+00
			12.15		1.5740e+00		1.0000e+00
			12.2		1.5500e+00		1.0000e+00
			12.25		1.5261e+00		1.0000e+00
			12.3		1.5077e+00		1.0000e+00
			12.35		1.4892e+00		1.0000e+00
			12.4		1.4708e+00		1.0000e+00
			12.45		1.4524e+00		1.0000e+00
			12.5		1.4336e+00		1.0000e+00
			12.55		1.4147e+00		1.0000e+00
			12.6		1.3959e+00		1.0000e+00
			12.65		1.3771e+00		1.0000e+00
			12.7		1.3584e+00		1.0000e+00
			12.75		1.3397e+00		1.0000e+00
			12.8		1.3210e+00		1.0000e+00
			12.85		1.3023e+00		1.0000e+00
			12.9		1.2839e+00		1.0000e+00
			12.95		1.2655e+00		1.0000e+00
			13.0		1.2470e+00		1.0000e+00
			13.05		1.2286e+00		1.0000e+00
			13.1		1.2056e+00		1.0000e+00
			13.15		1.1826e+00		1.0000e+00
			13.2		1.1596e+00		1.0000e+00
			13.25		1.1365e+00		1.0000e+00
			13.3		1.1136e+00		1.0000e+00
			13.35		1.0906e+00		1.0000e+00
			13.4		1.0676e+00		1.0000e+00
			13.45		1.0447e+00		1.0000e+00
			13.5		1.0219e+00		1.0000e+00
			13.55		9.9916e-01		1.0000e+00
			13.6		9.7640e-01		1.0000e+00
			13.65		9.5364e-01		1.0000e+00
			13.7		9.3072e-01		1.0000e+00
			13.75		9.0779e-01		1.0000e+00
			13.8		8.8487e-01		1.0000e+00
			13.85		8.6195e-01		1.0000e+00
			13.9		8.5365e-01		1.0000e+00
			13.95		8.4536e-01		1.0000e+00
