BEGIN_SCAN_DATA
	FORMAT=CC-Export V1.9                  
	FILE_CREATION_DATE=
	LAST_MODIFIED=11-Jan-2023 11:56:47
	BEGIN_SCAN  1
		TASK_NAME=RayStation Phantom Profiles & PDDs
		PROGRAM=RayStation
		COMMENT=RayStation Script Export
		MEAS_DATE=11-Jan-2023 11:56:47
		LINAC=RayStation
		MODALITY=X
		ISOCENTER=1000.00
		INPLANE_AXIS=Y
		CROSSPLANE_AXIS=X
		DEPTH_AXIS=Z
		INPLANE_AXIS_DIR=GUN_TARGET
		CROSSPLANE_AXIS_DIR=LEFT_RIGHT
		DEPTH_AXIS_DIR=UP_DOWN
		ENERGY=6.3
		NOMINAL_DMAX=20.00
		SSD=1000.0
		SCD=1000.00
		WEDGE_ANGLE=0.00
		FIELD_INPLANE=150.0
		FIELD_CROSSPLANE=100.0
		FIELD_TYPE=IRREGULAR
		GANTRY=0.00
		GANTRY_UPRIGHT_POSITION=0
		GANTRY_ROTATION=CW
		COLL_ANGLE=0.00
		REF_FIELD_DEPTH=50.00
		REF_FIELD_DEFINED=ISOCENTER
		FIELD_INPLANE=150.0
		FIELD_CROSSPLANE=100.0
		SCAN_CURVETYPE=INPLANE_PROFILE
		SCAN_DEPTH=50.0
		SCAN_OFFAXIS_INPLANE=0.00
		SCAN_OFFAXIS_CROSSPLANE=0.00
		SCAN_ANGLE=0.00
		SCAN_DIAGONAL=NOT_DIAGONAL
		SCAN_DIRECTION=NEGATIVE
		MEAS_MEDIUM=WATER
		MEAS_UNIT=cGy
		INCLINATION_ANGLE=0.00
		PRESSURE=1013.20
		TEMPERATURE=20.00
		NORM_TEMPERATURE=20.00
		CORRECTION_FACTOR=1.0000;
		BEGIN_DATA
			-5.0		0.0000e+00		1.0000e+00
			-4.95		0.0000e+00		1.0000e+00
			-4.9		0.0000e+00		1.0000e+00
			-4.85		0.0000e+00		1.0000e+00
			-4.8		0.0000e+00		1.0000e+00
			-4.75		0.0000e+00		1.0000e+00
			-4.7		0.0000e+00		1.0000e+00
			-4.65		0.0000e+00		1.0000e+00
			-4.6		0.0000e+00		1.0000e+00
			-4.55		2.3669e-05		1.0000e+00
			-4.5		4.7338e-05		1.0000e+00
			-4.45		7.1006e-05		1.0000e+00
			-4.4		9.4675e-05		1.0000e+00
			-4.35		4.3239e-04		1.0000e+00
			-4.3		7.7010e-04		1.0000e+00
			-4.25		1.1078e-03		1.0000e+00
			-4.2		1.4455e-03		1.0000e+00
			-4.15		1.4962e-03		1.0000e+00
			-4.1		1.5468e-03		1.0000e+00
			-4.05		1.5974e-03		1.0000e+00
			-4.0		1.6481e-03		1.0000e+00
			-3.95		1.6742e-03		1.0000e+00
			-3.9		1.7004e-03		1.0000e+00
			-3.85		1.7266e-03		1.0000e+00
			-3.8		1.7527e-03		1.0000e+00
			-3.75		1.7905e-03		1.0000e+00
			-3.7		1.8282e-03		1.0000e+00
			-3.65		1.8659e-03		1.0000e+00
			-3.6		1.9036e-03		1.0000e+00
			-3.55		1.9252e-03		1.0000e+00
			-3.5		1.9467e-03		1.0000e+00
			-3.45		1.9682e-03		1.0000e+00
			-3.4		1.9897e-03		1.0000e+00
			-3.35		2.0281e-03		1.0000e+00
			-3.3		2.0666e-03		1.0000e+00
			-3.25		2.1051e-03		1.0000e+00
			-3.2		2.1436e-03		1.0000e+00
			-3.15		2.1812e-03		1.0000e+00
			-3.1		2.2188e-03		1.0000e+00
			-3.05		2.2564e-03		1.0000e+00
			-3.0		2.2939e-03		1.0000e+00
			-2.95		2.3201e-03		1.0000e+00
			-2.9		2.3463e-03		1.0000e+00
			-2.85		2.3724e-03		1.0000e+00
			-2.8		2.3986e-03		1.0000e+00
			-2.75		2.4503e-03		1.0000e+00
			-2.7		2.5020e-03		1.0000e+00
			-2.65		2.5538e-03		1.0000e+00
			-2.6		2.6055e-03		1.0000e+00
			-2.55		2.6417e-03		1.0000e+00
			-2.5		2.6779e-03		1.0000e+00
			-2.45		2.7140e-03		1.0000e+00
			-2.4		2.7502e-03		1.0000e+00
			-2.35		2.7854e-03		1.0000e+00
			-2.3		2.8205e-03		1.0000e+00
			-2.25		2.8557e-03		1.0000e+00
			-2.2		2.8908e-03		1.0000e+00
			-2.15		2.9538e-03		1.0000e+00
			-2.1		3.0168e-03		1.0000e+00
			-2.05		3.0798e-03		1.0000e+00
			-2.0		3.1429e-03		1.0000e+00
			-1.95		3.1790e-03		1.0000e+00
			-1.9		3.2151e-03		1.0000e+00
			-1.85		3.2512e-03		1.0000e+00
			-1.8		3.2873e-03		1.0000e+00
			-1.75		3.3366e-03		1.0000e+00
			-1.7		3.3860e-03		1.0000e+00
			-1.65		3.4353e-03		1.0000e+00
			-1.6		3.4847e-03		1.0000e+00
			-1.55		3.5531e-03		1.0000e+00
			-1.5		3.6215e-03		1.0000e+00
			-1.45		3.6899e-03		1.0000e+00
			-1.4		3.7582e-03		1.0000e+00
			-1.35		3.7962e-03		1.0000e+00
			-1.3		3.8342e-03		1.0000e+00
			-1.25		3.8721e-03		1.0000e+00
			-1.2		3.9101e-03		1.0000e+00
			-1.15		3.9819e-03		1.0000e+00
			-1.1		4.0538e-03		1.0000e+00
			-1.05		4.1257e-03		1.0000e+00
			-1.0		4.1976e-03		1.0000e+00
			-0.95		4.2627e-03		1.0000e+00
			-0.9		4.3279e-03		1.0000e+00
			-0.85		4.3930e-03		1.0000e+00
			-0.8		4.4581e-03		1.0000e+00
			-0.75		4.5047e-03		1.0000e+00
			-0.7		4.5512e-03		1.0000e+00
			-0.65		4.5977e-03		1.0000e+00
			-0.6		4.6443e-03		1.0000e+00
			-0.55		4.7381e-03		1.0000e+00
			-0.5		4.8319e-03		1.0000e+00
			-0.45		4.9258e-03		1.0000e+00
			-0.4		5.0196e-03		1.0000e+00
			-0.35		5.0812e-03		1.0000e+00
			-0.3		5.1429e-03		1.0000e+00
			-0.25		5.2045e-03		1.0000e+00
			-0.2		5.2662e-03		1.0000e+00
			-0.15		5.3279e-03		1.0000e+00
			-0.1		5.3896e-03		1.0000e+00
			-0.05		5.4513e-03		1.0000e+00
			-0.0		5.5130e-03		1.0000e+00
			0.05		5.6218e-03		1.0000e+00
			0.1		5.7305e-03		1.0000e+00
			0.15		5.8392e-03		1.0000e+00
			0.2		5.9480e-03		1.0000e+00
			0.25		6.0090e-03		1.0000e+00
			0.3		6.0701e-03		1.0000e+00
			0.35		6.1311e-03		1.0000e+00
			0.4		6.1922e-03		1.0000e+00
			0.45		6.2802e-03		1.0000e+00
			0.5		6.3681e-03		1.0000e+00
			0.55		6.4561e-03		1.0000e+00
			0.6		6.5441e-03		1.0000e+00
			0.65		6.6559e-03		1.0000e+00
			0.7		6.7677e-03		1.0000e+00
			0.75		6.8795e-03		1.0000e+00
			0.8		6.9913e-03		1.0000e+00
			0.85		7.0562e-03		1.0000e+00
			0.9		7.1211e-03		1.0000e+00
			0.95		7.1860e-03		1.0000e+00
			1.0		7.2509e-03		1.0000e+00
			1.05		7.3757e-03		1.0000e+00
			1.1		7.5005e-03		1.0000e+00
			1.15		7.6253e-03		1.0000e+00
			1.2		7.7501e-03		1.0000e+00
			1.25		7.8534e-03		1.0000e+00
			1.3		7.9567e-03		1.0000e+00
			1.35		8.0600e-03		1.0000e+00
			1.4		8.1633e-03		1.0000e+00
			1.45		8.2417e-03		1.0000e+00
			1.5		8.3201e-03		1.0000e+00
			1.55		8.3985e-03		1.0000e+00
			1.6		8.4770e-03		1.0000e+00
			1.65		8.6350e-03		1.0000e+00
			1.7		8.7931e-03		1.0000e+00
			1.75		8.9512e-03		1.0000e+00
			1.8		9.1093e-03		1.0000e+00
			1.85		9.2055e-03		1.0000e+00
			1.9		9.3018e-03		1.0000e+00
			1.95		9.3980e-03		1.0000e+00
			2.0		9.4942e-03		1.0000e+00
			2.05		9.5991e-03		1.0000e+00
			2.1		9.7040e-03		1.0000e+00
			2.15		9.8089e-03		1.0000e+00
			2.2		9.9137e-03		1.0000e+00
			2.25		1.0091e-02		1.0000e+00
			2.3		1.0268e-02		1.0000e+00
			2.35		1.0446e-02		1.0000e+00
			2.4		1.0623e-02		1.0000e+00
			2.45		1.0716e-02		1.0000e+00
			2.5		1.0810e-02		1.0000e+00
			2.55		1.0903e-02		1.0000e+00
			2.6		1.0997e-02		1.0000e+00
			2.65		1.1146e-02		1.0000e+00
			2.7		1.1295e-02		1.0000e+00
			2.75		1.1444e-02		1.0000e+00
			2.8		1.1593e-02		1.0000e+00
			2.85		1.1767e-02		1.0000e+00
			2.9		1.1942e-02		1.0000e+00
			2.95		1.2117e-02		1.0000e+00
			3.0		1.2292e-02		1.0000e+00
			3.05		1.2392e-02		1.0000e+00
			3.1		1.2493e-02		1.0000e+00
			3.15		1.2594e-02		1.0000e+00
			3.2		1.2695e-02		1.0000e+00
			3.25		1.2898e-02		1.0000e+00
			3.3		1.3101e-02		1.0000e+00
			3.35		1.3304e-02		1.0000e+00
			3.4		1.3507e-02		1.0000e+00
			3.45		1.3666e-02		1.0000e+00
			3.5		1.3825e-02		1.0000e+00
			3.55		1.3983e-02		1.0000e+00
			3.6		1.4142e-02		1.0000e+00
			3.65		1.4264e-02		1.0000e+00
			3.7		1.4386e-02		1.0000e+00
			3.75		1.4508e-02		1.0000e+00
			3.8		1.4631e-02		1.0000e+00
			3.85		1.4877e-02		1.0000e+00
			3.9		1.5124e-02		1.0000e+00
			3.95		1.5371e-02		1.0000e+00
			4.0		1.5618e-02		1.0000e+00
			4.05		1.5752e-02		1.0000e+00
			4.1		1.5887e-02		1.0000e+00
			4.15		1.6021e-02		1.0000e+00
			4.2		1.6156e-02		1.0000e+00
			4.25		1.6308e-02		1.0000e+00
			4.3		1.6460e-02		1.0000e+00
			4.35		1.6612e-02		1.0000e+00
			4.4		1.6765e-02		1.0000e+00
			4.45		1.7016e-02		1.0000e+00
			4.5		1.7267e-02		1.0000e+00
			4.55		1.7518e-02		1.0000e+00
			4.6		1.7769e-02		1.0000e+00
			4.65		1.7896e-02		1.0000e+00
			4.7		1.8023e-02		1.0000e+00
			4.75		1.8149e-02		1.0000e+00
			4.8		1.8276e-02		1.0000e+00
			4.85		1.8492e-02		1.0000e+00
			4.9		1.8708e-02		1.0000e+00
			4.95		1.8924e-02		1.0000e+00
			5.0		1.9141e-02		1.0000e+00
			5.05		1.9379e-02		1.0000e+00
			5.1		1.9617e-02		1.0000e+00
			5.15		1.9855e-02		1.0000e+00
			5.2		2.0093e-02		1.0000e+00
			5.25		2.0240e-02		1.0000e+00
			5.3		2.0386e-02		1.0000e+00
			5.35		2.0533e-02		1.0000e+00
			5.4		2.0679e-02		1.0000e+00
			5.45		2.0976e-02		1.0000e+00
			5.5		2.1273e-02		1.0000e+00
			5.55		2.1571e-02		1.0000e+00
			5.6		2.1868e-02		1.0000e+00
			5.65		2.2078e-02		1.0000e+00
			5.7		2.2288e-02		1.0000e+00
			5.75		2.2498e-02		1.0000e+00
			5.8		2.2708e-02		1.0000e+00
			5.85		2.2881e-02		1.0000e+00
			5.9		2.3054e-02		1.0000e+00
			5.95		2.3227e-02		1.0000e+00
			6.0		2.3401e-02		1.0000e+00
			6.05		2.3753e-02		1.0000e+00
			6.1		2.4105e-02		1.0000e+00
			6.15		2.4458e-02		1.0000e+00
			6.2		2.4810e-02		1.0000e+00
			6.25		2.4995e-02		1.0000e+00
			6.3		2.5180e-02		1.0000e+00
			6.35		2.5365e-02		1.0000e+00
			6.4		2.5550e-02		1.0000e+00
			6.45		2.5786e-02		1.0000e+00
			6.5		2.6022e-02		1.0000e+00
			6.55		2.6257e-02		1.0000e+00
			6.6		2.6493e-02		1.0000e+00
			6.65		2.6852e-02		1.0000e+00
			6.7		2.7211e-02		1.0000e+00
			6.75		2.7570e-02		1.0000e+00
			6.8		2.7929e-02		1.0000e+00
			6.85		2.8112e-02		1.0000e+00
			6.9		2.8295e-02		1.0000e+00
			6.95		2.8478e-02		1.0000e+00
			7.0		2.8661e-02		1.0000e+00
			7.05		2.8980e-02		1.0000e+00
			7.1		2.9299e-02		1.0000e+00
			7.15		2.9619e-02		1.0000e+00
			7.2		2.9938e-02		1.0000e+00
			7.25		3.0264e-02		1.0000e+00
			7.3		3.0590e-02		1.0000e+00
			7.35		3.0916e-02		1.0000e+00
			7.4		3.1241e-02		1.0000e+00
			7.45		3.1437e-02		1.0000e+00
			7.5		3.1633e-02		1.0000e+00
			7.55		3.1829e-02		1.0000e+00
			7.6		3.2025e-02		1.0000e+00
			7.65		3.2442e-02		1.0000e+00
			7.7		3.2860e-02		1.0000e+00
			7.75		3.3277e-02		1.0000e+00
			7.8		3.3694e-02		1.0000e+00
			7.85		3.3970e-02		1.0000e+00
			7.9		3.4247e-02		1.0000e+00
			7.95		3.4523e-02		1.0000e+00
			8.0		3.4799e-02		1.0000e+00
			8.05		3.5034e-02		1.0000e+00
			8.1		3.5268e-02		1.0000e+00
			8.15		3.5502e-02		1.0000e+00
			8.2		3.5737e-02		1.0000e+00
			8.25		3.6207e-02		1.0000e+00
			8.3		3.6677e-02		1.0000e+00
			8.35		3.7147e-02		1.0000e+00
			8.4		3.7618e-02		1.0000e+00
			8.45		3.7858e-02		1.0000e+00
			8.5		3.8099e-02		1.0000e+00
			8.55		3.8340e-02		1.0000e+00
			8.6		3.8581e-02		1.0000e+00
			8.65		3.8902e-02		1.0000e+00
			8.7		3.9223e-02		1.0000e+00
			8.75		3.9544e-02		1.0000e+00
			8.8		3.9865e-02		1.0000e+00
			8.85		4.0318e-02		1.0000e+00
			8.9		4.0770e-02		1.0000e+00
			8.95		4.1223e-02		1.0000e+00
			9.0		4.1675e-02		1.0000e+00
			9.05		6.5576e-02		1.0000e+00
			9.1		8.9476e-02		1.0000e+00
			9.15		1.1338e-01		1.0000e+00
			9.2		1.3728e-01		1.0000e+00
			9.25		1.6121e-01		1.0000e+00
			9.3		1.8514e-01		1.0000e+00
			9.35		2.0907e-01		1.0000e+00
			9.4		2.3300e-01		1.0000e+00
			9.45		2.5699e-01		1.0000e+00
			9.5		2.8097e-01		1.0000e+00
			9.55		3.0496e-01		1.0000e+00
			9.6		3.2895e-01		1.0000e+00
			9.65		3.5296e-01		1.0000e+00
			9.7		3.7698e-01		1.0000e+00
			9.75		4.0099e-01		1.0000e+00
			9.8		4.2500e-01		1.0000e+00
			9.85		4.2956e-01		1.0000e+00
			9.9		4.3412e-01		1.0000e+00
			9.95		4.3868e-01		1.0000e+00
			10.0		4.4324e-01		1.0000e+00
			10.05		4.4781e-01		1.0000e+00
			10.1		4.5237e-01		1.0000e+00
			10.15		4.5693e-01		1.0000e+00
			10.2		4.6150e-01		1.0000e+00
			10.25		4.6607e-01		1.0000e+00
			10.3		4.7063e-01		1.0000e+00
			10.35		4.7520e-01		1.0000e+00
			10.4		4.7977e-01		1.0000e+00
			10.45		4.8434e-01		1.0000e+00
			10.5		4.8892e-01		1.0000e+00
			10.55		4.9349e-01		1.0000e+00
			10.6		4.9806e-01		1.0000e+00
			10.65		5.0409e-01		1.0000e+00
			10.7		5.1012e-01		1.0000e+00
			10.75		5.1615e-01		1.0000e+00
			10.8		5.2218e-01		1.0000e+00
			10.85		5.2821e-01		1.0000e+00
			10.9		5.3425e-01		1.0000e+00
			10.95		5.4028e-01		1.0000e+00
			11.0		5.4632e-01		1.0000e+00
			11.05		5.5236e-01		1.0000e+00
			11.1		5.5840e-01		1.0000e+00
			11.15		5.6444e-01		1.0000e+00
			11.2		5.7048e-01		1.0000e+00
			11.25		5.7652e-01		1.0000e+00
			11.3		5.8256e-01		1.0000e+00
			11.35		5.8861e-01		1.0000e+00
			11.4		5.9465e-01		1.0000e+00
			11.45		6.0233e-01		1.0000e+00
			11.5		6.1001e-01		1.0000e+00
			11.55		6.1769e-01		1.0000e+00
			11.6		6.2537e-01		1.0000e+00
			11.65		6.3305e-01		1.0000e+00
			11.7		6.4074e-01		1.0000e+00
			11.75		6.4843e-01		1.0000e+00
			11.8		6.5611e-01		1.0000e+00
			11.85		6.6380e-01		1.0000e+00
			11.9		6.7149e-01		1.0000e+00
			11.95		6.7918e-01		1.0000e+00
			12.0		6.8687e-01		1.0000e+00
			12.05		6.9457e-01		1.0000e+00
			12.1		7.0227e-01		1.0000e+00
			12.15		7.0996e-01		1.0000e+00
			12.2		7.1766e-01		1.0000e+00
			12.25		7.2683e-01		1.0000e+00
			12.3		7.3600e-01		1.0000e+00
			12.35		7.4516e-01		1.0000e+00
			12.4		7.5433e-01		1.0000e+00
			12.45		7.6350e-01		1.0000e+00
			12.5		7.7268e-01		1.0000e+00
			12.55		7.8185e-01		1.0000e+00
			12.6		7.9102e-01		1.0000e+00
			12.65		8.0021e-01		1.0000e+00
			12.7		8.0939e-01		1.0000e+00
			12.75		8.1857e-01		1.0000e+00
			12.8		8.2775e-01		1.0000e+00
			12.85		8.3694e-01		1.0000e+00
			12.9		8.4612e-01		1.0000e+00
			12.95		8.5531e-01		1.0000e+00
			13.0		8.6449e-01		1.0000e+00
			13.05		8.7556e-01		1.0000e+00
			13.1		8.8662e-01		1.0000e+00
			13.15		8.9769e-01		1.0000e+00
			13.2		9.0875e-01		1.0000e+00
			13.25		9.1982e-01		1.0000e+00
			13.3		9.3089e-01		1.0000e+00
			13.35		9.4196e-01		1.0000e+00
			13.4		9.5304e-01		1.0000e+00
			13.45		9.6411e-01		1.0000e+00
			13.5		9.7518e-01		1.0000e+00
			13.55		9.8626e-01		1.0000e+00
			13.6		9.9733e-01		1.0000e+00
			13.65		1.0084e+00		1.0000e+00
			13.7		1.0195e+00		1.0000e+00
			13.75		1.0306e+00		1.0000e+00
			13.8		1.0417e+00		1.0000e+00
			13.85		1.0704e+00		1.0000e+00
			13.9		1.0992e+00		1.0000e+00
			13.95		1.1279e+00		1.0000e+00
			14.0		1.1567e+00		1.0000e+00
			14.05		1.1854e+00		1.0000e+00
			14.1		1.2142e+00		1.0000e+00
			14.15		1.2430e+00		1.0000e+00
			14.2		1.2717e+00		1.0000e+00
			14.25		1.3005e+00		1.0000e+00
			14.3		1.3293e+00		1.0000e+00
			14.35		1.3581e+00		1.0000e+00
			14.4		1.3869e+00		1.0000e+00
			14.45		1.4157e+00		1.0000e+00
			14.5		1.4445e+00		1.0000e+00
			14.55		1.4733e+00		1.0000e+00
			14.6		1.5021e+00		1.0000e+00
			14.65		1.5312e+00		1.0000e+00
			14.7		1.5603e+00		1.0000e+00
			14.75		1.5894e+00		1.0000e+00
			14.8		1.6185e+00		1.0000e+00
			14.85		1.6477e+00		1.0000e+00
			14.9		1.6768e+00		1.0000e+00
			14.95		1.7059e+00		1.0000e+00
			15.0		1.7351e+00		1.0000e+00
			15.05		1.7642e+00		1.0000e+00
			15.1		1.7933e+00		1.0000e+00
			15.15		1.8225e+00		1.0000e+00
			15.2		1.8516e+00		1.0000e+00
			15.25		1.8808e+00		1.0000e+00
			15.3		1.9100e+00		1.0000e+00
			15.35		1.9391e+00		1.0000e+00
			15.4		1.9683e+00		1.0000e+00
			15.45		2.0045e+00		1.0000e+00
			15.5		2.0407e+00		1.0000e+00
			15.55		2.0770e+00		1.0000e+00
			15.6		2.1132e+00		1.0000e+00
			15.65		2.1494e+00		1.0000e+00
			15.7		2.1857e+00		1.0000e+00
			15.75		2.2219e+00		1.0000e+00
			15.8		2.2581e+00		1.0000e+00
			15.85		2.2944e+00		1.0000e+00
			15.9		2.3307e+00		1.0000e+00
			15.95		2.3669e+00		1.0000e+00
			16.0		2.4032e+00		1.0000e+00
			16.05		2.4395e+00		1.0000e+00
			16.1		2.4758e+00		1.0000e+00
			16.15		2.5120e+00		1.0000e+00
			16.2		2.5483e+00		1.0000e+00
			16.25		2.5905e+00		1.0000e+00
			16.3		2.6327e+00		1.0000e+00
			16.35		2.6749e+00		1.0000e+00
			16.4		2.7171e+00		1.0000e+00
			16.45		2.7594e+00		1.0000e+00
			16.5		2.8016e+00		1.0000e+00
			16.55		2.8439e+00		1.0000e+00
			16.6		2.8861e+00		1.0000e+00
			16.65		2.9284e+00		1.0000e+00
			16.7		2.9706e+00		1.0000e+00
			16.75		3.0129e+00		1.0000e+00
			16.8		3.0551e+00		1.0000e+00
			16.85		3.0974e+00		1.0000e+00
			16.9		3.1397e+00		1.0000e+00
			16.95		3.1819e+00		1.0000e+00
			17.0		3.2242e+00		1.0000e+00
			17.05		3.2795e+00		1.0000e+00
			17.1		3.3348e+00		1.0000e+00
			17.15		3.3900e+00		1.0000e+00
			17.2		3.4453e+00		1.0000e+00
			17.25		3.5006e+00		1.0000e+00
			17.3		3.5559e+00		1.0000e+00
			17.35		3.6112e+00		1.0000e+00
			17.4		3.6665e+00		1.0000e+00
			17.45		3.7218e+00		1.0000e+00
			17.5		3.7771e+00		1.0000e+00
			17.55		3.8324e+00		1.0000e+00
			17.6		3.8877e+00		1.0000e+00
			17.65		3.9431e+00		1.0000e+00
			17.7		3.9984e+00		1.0000e+00
			17.75		4.0538e+00		1.0000e+00
			17.8		4.1091e+00		1.0000e+00
			17.85		4.1840e+00		1.0000e+00
			17.9		4.2589e+00		1.0000e+00
			17.95		4.3338e+00		1.0000e+00
			18.0		4.4086e+00		1.0000e+00
			18.05		4.4835e+00		1.0000e+00
			18.1		4.5585e+00		1.0000e+00
			18.15		4.6334e+00		1.0000e+00
			18.2		4.7083e+00		1.0000e+00
			18.25		4.7839e+00		1.0000e+00
			18.3		4.8596e+00		1.0000e+00
			18.35		4.9352e+00		1.0000e+00
			18.4		5.0108e+00		1.0000e+00
			18.45		5.0865e+00		1.0000e+00
			18.5		5.1621e+00		1.0000e+00
			18.55		5.2378e+00		1.0000e+00
			18.6		5.3134e+00		1.0000e+00
			18.65		5.4397e+00		1.0000e+00
			18.7		5.5661e+00		1.0000e+00
			18.75		5.6924e+00		1.0000e+00
			18.8		5.8188e+00		1.0000e+00
			18.85		5.9452e+00		1.0000e+00
			18.9		6.0715e+00		1.0000e+00
			18.95		6.1979e+00		1.0000e+00
			19.0		6.3243e+00		1.0000e+00
			19.05		6.6584e+00		1.0000e+00
			19.1		6.9926e+00		1.0000e+00
			19.15		7.3267e+00		1.0000e+00
			19.2		7.6608e+00		1.0000e+00
			19.25		7.9987e+00		1.0000e+00
			19.3		8.3366e+00		1.0000e+00
			19.35		8.6745e+00		1.0000e+00
			19.4		9.0124e+00		1.0000e+00
			19.45		1.0458e+01		1.0000e+00
			19.5		1.1903e+01		1.0000e+00
			19.55		1.3349e+01		1.0000e+00
			19.6		1.4795e+01		1.0000e+00
			19.65		2.0543e+01		1.0000e+00
			19.7		2.6292e+01		1.0000e+00
			19.75		3.2041e+01		1.0000e+00
			19.8		3.7789e+01		1.0000e+00
			19.85		4.2679e+01		1.0000e+00
			19.9		4.7568e+01		1.0000e+00
			19.95		5.2458e+01		1.0000e+00
			20.0		5.7348e+01		1.0000e+00
			20.05		5.8702e+01		1.0000e+00
			20.1		6.0056e+01		1.0000e+00
			20.15		6.1410e+01		1.0000e+00
			20.2		6.2763e+01		1.0000e+00
			20.25		6.3238e+01		1.0000e+00
			20.3		6.3712e+01		1.0000e+00
			20.35		6.4186e+01		1.0000e+00
			20.4		6.4660e+01		1.0000e+00
			20.45		6.4888e+01		1.0000e+00
			20.5		6.5116e+01		1.0000e+00
			20.55		6.5344e+01		1.0000e+00
			20.6		6.5572e+01		1.0000e+00
			20.65		6.5713e+01		1.0000e+00
			20.7		6.5855e+01		1.0000e+00
			20.75		6.5996e+01		1.0000e+00
			20.8		6.6137e+01		1.0000e+00
			20.85		6.6229e+01		1.0000e+00
			20.9		6.6322e+01		1.0000e+00
			20.95		6.6415e+01		1.0000e+00
			21.0		6.6507e+01		1.0000e+00
			21.05		6.6553e+01		1.0000e+00
			21.1		6.6599e+01		1.0000e+00
			21.15		6.6645e+01		1.0000e+00
			21.2		6.6691e+01		1.0000e+00
			21.25		6.6736e+01		1.0000e+00
			21.3		6.6782e+01		1.0000e+00
			21.35		6.6828e+01		1.0000e+00
			21.4		6.6874e+01		1.0000e+00
			21.45		6.6919e+01		1.0000e+00
			21.5		6.6965e+01		1.0000e+00
			21.55		6.7011e+01		1.0000e+00
			21.6		6.7056e+01		1.0000e+00
			21.65		6.7102e+01		1.0000e+00
			21.7		6.7147e+01		1.0000e+00
			21.75		6.7193e+01		1.0000e+00
			21.8		6.7238e+01		1.0000e+00
			21.85		6.7257e+01		1.0000e+00
			21.9		6.7276e+01		1.0000e+00
			21.95		6.7295e+01		1.0000e+00
			22.0		6.7314e+01		1.0000e+00
			22.05		6.7332e+01		1.0000e+00
			22.1		6.7351e+01		1.0000e+00
			22.15		6.7370e+01		1.0000e+00
			22.2		6.7388e+01		1.0000e+00
			22.25		6.7407e+01		1.0000e+00
			22.3		6.7425e+01		1.0000e+00
			22.35		6.7444e+01		1.0000e+00
			22.4		6.7462e+01		1.0000e+00
			22.45		6.7481e+01		1.0000e+00
			22.5		6.7499e+01		1.0000e+00
			22.55		6.7518e+01		1.0000e+00
			22.6		6.7536e+01		1.0000e+00
			22.65		6.7542e+01		1.0000e+00
			22.7		6.7549e+01		1.0000e+00
			22.75		6.7555e+01		1.0000e+00
			22.8		6.7561e+01		1.0000e+00
			22.85		6.7567e+01		1.0000e+00
			22.9		6.7574e+01		1.0000e+00
			22.95		6.7580e+01		1.0000e+00
			23.0		6.7586e+01		1.0000e+00
			23.05		6.7592e+01		1.0000e+00
			23.1		6.7598e+01		1.0000e+00
			23.15		6.7604e+01		1.0000e+00
			23.2		6.7610e+01		1.0000e+00
			23.25		6.7616e+01		1.0000e+00
			23.3		6.7622e+01		1.0000e+00
			23.35		6.7628e+01		1.0000e+00
			23.4		6.7634e+01		1.0000e+00
			23.45		6.7631e+01		1.0000e+00
			23.5		6.7629e+01		1.0000e+00
			23.55		6.7627e+01		1.0000e+00
			23.6		6.7625e+01		1.0000e+00
			23.65		6.7622e+01		1.0000e+00
			23.7		6.7620e+01		1.0000e+00
			23.75		6.7617e+01		1.0000e+00
			23.8		6.7615e+01		1.0000e+00
			23.85		6.7612e+01		1.0000e+00
			23.9		6.7610e+01		1.0000e+00
			23.95		6.7607e+01		1.0000e+00
			24.0		6.7605e+01		1.0000e+00
			24.05		6.7602e+01		1.0000e+00
			24.1		6.7600e+01		1.0000e+00
			24.15		6.7597e+01		1.0000e+00
			24.2		6.7594e+01		1.0000e+00
			24.25		6.7591e+01		1.0000e+00
			24.3		6.7587e+01		1.0000e+00
			24.35		6.7583e+01		1.0000e+00
			24.4		6.7579e+01		1.0000e+00
			24.45		6.7576e+01		1.0000e+00
			24.5		6.7572e+01		1.0000e+00
			24.55		6.7568e+01		1.0000e+00
			24.6		6.7564e+01		1.0000e+00
			24.65		6.7560e+01		1.0000e+00
			24.7		6.7556e+01		1.0000e+00
			24.75		6.7552e+01		1.0000e+00
			24.8		6.7549e+01		1.0000e+00
			24.85		6.7545e+01		1.0000e+00
			24.9		6.7540e+01		1.0000e+00
			24.95		6.7536e+01		1.0000e+00
			25.0		6.7532e+01		1.0000e+00
			25.05		6.7536e+01		1.0000e+00
			25.1		6.7540e+01		1.0000e+00
			25.15		6.7544e+01		1.0000e+00
			25.2		6.7548e+01		1.0000e+00
			25.25		6.7552e+01		1.0000e+00
			25.3		6.7556e+01		1.0000e+00
			25.35		6.7560e+01		1.0000e+00
			25.4		6.7564e+01		1.0000e+00
			25.45		6.7568e+01		1.0000e+00
			25.5		6.7571e+01		1.0000e+00
			25.55		6.7575e+01		1.0000e+00
			25.6		6.7579e+01		1.0000e+00
			25.65		6.7583e+01		1.0000e+00
			25.7		6.7586e+01		1.0000e+00
			25.75		6.7590e+01		1.0000e+00
			25.8		6.7594e+01		1.0000e+00
			25.85		6.7596e+01		1.0000e+00
			25.9		6.7599e+01		1.0000e+00
			25.95		6.7602e+01		1.0000e+00
			26.0		6.7604e+01		1.0000e+00
			26.05		6.7607e+01		1.0000e+00
			26.1		6.7609e+01		1.0000e+00
			26.15		6.7612e+01		1.0000e+00
			26.2		6.7614e+01		1.0000e+00
			26.25		6.7617e+01		1.0000e+00
			26.3		6.7619e+01		1.0000e+00
			26.35		6.7621e+01		1.0000e+00
			26.4		6.7624e+01		1.0000e+00
			26.45		6.7626e+01		1.0000e+00
			26.5		6.7628e+01		1.0000e+00
			26.55		6.7631e+01		1.0000e+00
			26.6		6.7633e+01		1.0000e+00
			26.65		6.7627e+01		1.0000e+00
			26.7		6.7621e+01		1.0000e+00
			26.75		6.7616e+01		1.0000e+00
			26.8		6.7610e+01		1.0000e+00
			26.85		6.7604e+01		1.0000e+00
			26.9		6.7598e+01		1.0000e+00
			26.95		6.7592e+01		1.0000e+00
			27.0		6.7586e+01		1.0000e+00
			27.05		6.7580e+01		1.0000e+00
			27.1		6.7574e+01		1.0000e+00
			27.15		6.7568e+01		1.0000e+00
			27.2		6.7562e+01		1.0000e+00
			27.25		6.7556e+01		1.0000e+00
			27.3		6.7550e+01		1.0000e+00
			27.35		6.7544e+01		1.0000e+00
			27.4		6.7538e+01		1.0000e+00
			27.45		6.7519e+01		1.0000e+00
			27.5		6.7501e+01		1.0000e+00
			27.55		6.7482e+01		1.0000e+00
			27.6		6.7464e+01		1.0000e+00
			27.65		6.7445e+01		1.0000e+00
			27.7		6.7426e+01		1.0000e+00
			27.75		6.7408e+01		1.0000e+00
			27.8		6.7389e+01		1.0000e+00
			27.85		6.7370e+01		1.0000e+00
			27.9		6.7351e+01		1.0000e+00
			27.95		6.7332e+01		1.0000e+00
			28.0		6.7314e+01		1.0000e+00
			28.05		6.7295e+01		1.0000e+00
			28.1		6.7276e+01		1.0000e+00
			28.15		6.7257e+01		1.0000e+00
			28.2		6.7238e+01		1.0000e+00
			28.25		6.7192e+01		1.0000e+00
			28.3		6.7147e+01		1.0000e+00
			28.35		6.7101e+01		1.0000e+00
			28.4		6.7055e+01		1.0000e+00
			28.45		6.7010e+01		1.0000e+00
			28.5		6.6964e+01		1.0000e+00
			28.55		6.6918e+01		1.0000e+00
			28.6		6.6873e+01		1.0000e+00
			28.65		6.6827e+01		1.0000e+00
			28.7		6.6782e+01		1.0000e+00
			28.75		6.6737e+01		1.0000e+00
			28.8		6.6692e+01		1.0000e+00
			28.85		6.6647e+01		1.0000e+00
			28.9		6.6602e+01		1.0000e+00
			28.95		6.6556e+01		1.0000e+00
			29.0		6.6511e+01		1.0000e+00
			29.05		6.6417e+01		1.0000e+00
			29.1		6.6323e+01		1.0000e+00
			29.15		6.6228e+01		1.0000e+00
			29.2		6.6134e+01		1.0000e+00
			29.25		6.5994e+01		1.0000e+00
			29.3		6.5853e+01		1.0000e+00
			29.35		6.5713e+01		1.0000e+00
			29.4		6.5572e+01		1.0000e+00
			29.45		6.5344e+01		1.0000e+00
			29.5		6.5116e+01		1.0000e+00
			29.55		6.4887e+01		1.0000e+00
			29.6		6.4659e+01		1.0000e+00
			29.65		6.4185e+01		1.0000e+00
			29.7		6.3710e+01		1.0000e+00
			29.75		6.3236e+01		1.0000e+00
			29.8		6.2761e+01		1.0000e+00
			29.85		6.1410e+01		1.0000e+00
			29.9		6.0058e+01		1.0000e+00
			29.95		5.8706e+01		1.0000e+00
			30.0		5.7354e+01		1.0000e+00
			30.05		5.2465e+01		1.0000e+00
			30.1		4.7576e+01		1.0000e+00
			30.15		4.2687e+01		1.0000e+00
			30.2		3.7799e+01		1.0000e+00
			30.25		3.2049e+01		1.0000e+00
			30.3		2.6300e+01		1.0000e+00
			30.35		2.0550e+01		1.0000e+00
			30.4		1.4801e+01		1.0000e+00
			30.45		1.3350e+01		1.0000e+00
			30.5		1.1900e+01		1.0000e+00
			30.55		1.0449e+01		1.0000e+00
			30.6		8.9985e+00		1.0000e+00
			30.65		8.6642e+00		1.0000e+00
			30.7		8.3299e+00		1.0000e+00
			30.75		7.9955e+00		1.0000e+00
			30.8		7.6612e+00		1.0000e+00
			30.85		7.3270e+00		1.0000e+00
			30.9		6.9928e+00		1.0000e+00
			30.95		6.6586e+00		1.0000e+00
			31.0		6.3244e+00		1.0000e+00
			31.05		6.1972e+00		1.0000e+00
			31.1		6.0701e+00		1.0000e+00
			31.15		5.9430e+00		1.0000e+00
			31.2		5.8159e+00		1.0000e+00
			31.25		5.6888e+00		1.0000e+00
			31.3		5.5617e+00		1.0000e+00
			31.35		5.4346e+00		1.0000e+00
			31.4		5.3075e+00		1.0000e+00
			31.45		5.2326e+00		1.0000e+00
			31.5		5.1577e+00		1.0000e+00
			31.55		5.0828e+00		1.0000e+00
			31.6		5.0078e+00		1.0000e+00
			31.65		4.9329e+00		1.0000e+00
			31.7		4.8580e+00		1.0000e+00
			31.75		4.7831e+00		1.0000e+00
			31.8		4.7082e+00		1.0000e+00
			31.85		4.6334e+00		1.0000e+00
			31.9		4.5585e+00		1.0000e+00
			31.95		4.4836e+00		1.0000e+00
			32.0		4.4087e+00		1.0000e+00
			32.05		4.3339e+00		1.0000e+00
			32.1		4.2591e+00		1.0000e+00
			32.15		4.1842e+00		1.0000e+00
			32.2		4.1094e+00		1.0000e+00
			32.25		4.0541e+00		1.0000e+00
			32.3		3.9987e+00		1.0000e+00
			32.35		3.9433e+00		1.0000e+00
			32.4		3.8880e+00		1.0000e+00
			32.45		3.8326e+00		1.0000e+00
			32.5		3.7773e+00		1.0000e+00
			32.55		3.7220e+00		1.0000e+00
			32.6		3.6666e+00		1.0000e+00
			32.65		3.6113e+00		1.0000e+00
			32.7		3.5560e+00		1.0000e+00
			32.75		3.5007e+00		1.0000e+00
			32.8		3.4454e+00		1.0000e+00
			32.85		3.3901e+00		1.0000e+00
			32.9		3.3349e+00		1.0000e+00
			32.95		3.2796e+00		1.0000e+00
			33.0		3.2243e+00		1.0000e+00
			33.05		3.1820e+00		1.0000e+00
			33.1		3.1397e+00		1.0000e+00
			33.15		3.0974e+00		1.0000e+00
			33.2		3.0551e+00		1.0000e+00
			33.25		3.0128e+00		1.0000e+00
			33.3		2.9706e+00		1.0000e+00
			33.35		2.9283e+00		1.0000e+00
			33.4		2.8861e+00		1.0000e+00
			33.45		2.8438e+00		1.0000e+00
			33.5		2.8015e+00		1.0000e+00
			33.55		2.7593e+00		1.0000e+00
			33.6		2.7170e+00		1.0000e+00
			33.65		2.6748e+00		1.0000e+00
			33.7		2.6326e+00		1.0000e+00
			33.75		2.5904e+00		1.0000e+00
			33.8		2.5481e+00		1.0000e+00
			33.85		2.5119e+00		1.0000e+00
			33.9		2.4757e+00		1.0000e+00
			33.95		2.4394e+00		1.0000e+00
			34.0		2.4032e+00		1.0000e+00
			34.05		2.3669e+00		1.0000e+00
			34.1		2.3307e+00		1.0000e+00
			34.15		2.2945e+00		1.0000e+00
			34.2		2.2582e+00		1.0000e+00
			34.25		2.2220e+00		1.0000e+00
			34.3		2.1859e+00		1.0000e+00
			34.35		2.1497e+00		1.0000e+00
			34.4		2.1135e+00		1.0000e+00
			34.45		2.0773e+00		1.0000e+00
			34.5		2.0411e+00		1.0000e+00
			34.55		2.0049e+00		1.0000e+00
			34.6		1.9687e+00		1.0000e+00
			34.65		1.9395e+00		1.0000e+00
			34.7		1.9103e+00		1.0000e+00
			34.75		1.8811e+00		1.0000e+00
			34.8		1.8519e+00		1.0000e+00
			34.85		1.8227e+00		1.0000e+00
			34.9		1.7936e+00		1.0000e+00
			34.95		1.7644e+00		1.0000e+00
			35.0		1.7352e+00		1.0000e+00
			35.05		1.7061e+00		1.0000e+00
			35.1		1.6769e+00		1.0000e+00
			35.15		1.6477e+00		1.0000e+00
			35.2		1.6186e+00		1.0000e+00
			35.25		1.5894e+00		1.0000e+00
			35.3		1.5603e+00		1.0000e+00
			35.35		1.5312e+00		1.0000e+00
			35.4		1.5020e+00		1.0000e+00
			35.45		1.4732e+00		1.0000e+00
			35.5		1.4444e+00		1.0000e+00
			35.55		1.4156e+00		1.0000e+00
			35.6		1.3868e+00		1.0000e+00
			35.65		1.3580e+00		1.0000e+00
			35.7		1.3292e+00		1.0000e+00
			35.75		1.3004e+00		1.0000e+00
			35.8		1.2717e+00		1.0000e+00
			35.85		1.2429e+00		1.0000e+00
			35.9		1.2141e+00		1.0000e+00
			35.95		1.1854e+00		1.0000e+00
			36.0		1.1566e+00		1.0000e+00
			36.05		1.1279e+00		1.0000e+00
			36.1		1.0991e+00		1.0000e+00
			36.15		1.0704e+00		1.0000e+00
			36.2		1.0416e+00		1.0000e+00
			36.25		1.0306e+00		1.0000e+00
			36.3		1.0195e+00		1.0000e+00
			36.35		1.0084e+00		1.0000e+00
			36.4		9.9730e-01		1.0000e+00
			36.45		9.8623e-01		1.0000e+00
			36.5		9.7516e-01		1.0000e+00
			36.55		9.6409e-01		1.0000e+00
			36.6		9.5302e-01		1.0000e+00
			36.65		9.4196e-01		1.0000e+00
			36.7		9.3089e-01		1.0000e+00
			36.75		9.1982e-01		1.0000e+00
			36.8		9.0875e-01		1.0000e+00
			36.85		8.9769e-01		1.0000e+00
			36.9		8.8663e-01		1.0000e+00
			36.95		8.7558e-01		1.0000e+00
			37.0		8.6452e-01		1.0000e+00
			37.05		8.5533e-01		1.0000e+00
			37.1		8.4614e-01		1.0000e+00
			37.15		8.3696e-01		1.0000e+00
			37.2		8.2777e-01		1.0000e+00
			37.25		8.1859e-01		1.0000e+00
			37.3		8.0940e-01		1.0000e+00
			37.35		8.0022e-01		1.0000e+00
			37.4		7.9103e-01		1.0000e+00
			37.45		7.8186e-01		1.0000e+00
			37.5		7.7268e-01		1.0000e+00
			37.55		7.6351e-01		1.0000e+00
			37.6		7.5433e-01		1.0000e+00
			37.65		7.4516e-01		1.0000e+00
			37.7		7.3599e-01		1.0000e+00
			37.75		7.2683e-01		1.0000e+00
			37.8		7.1766e-01		1.0000e+00
			37.85		7.0996e-01		1.0000e+00
			37.9		7.0226e-01		1.0000e+00
			37.95		6.9456e-01		1.0000e+00
			38.0		6.8686e-01		1.0000e+00
			38.05		6.7917e-01		1.0000e+00
			38.1		6.7148e-01		1.0000e+00
			38.15		6.6379e-01		1.0000e+00
			38.2		6.5610e-01		1.0000e+00
			38.25		6.4841e-01		1.0000e+00
			38.3		6.4073e-01		1.0000e+00
			38.35		6.3304e-01		1.0000e+00
			38.4		6.2535e-01		1.0000e+00
			38.45		6.1767e-01		1.0000e+00
			38.5		6.0999e-01		1.0000e+00
			38.55		6.0231e-01		1.0000e+00
			38.6		5.9463e-01		1.0000e+00
			38.65		5.8859e-01		1.0000e+00
			38.7		5.8255e-01		1.0000e+00
			38.75		5.7650e-01		1.0000e+00
			38.8		5.7046e-01		1.0000e+00
			38.85		5.6442e-01		1.0000e+00
			38.9		5.5838e-01		1.0000e+00
			38.95		5.5234e-01		1.0000e+00
			39.0		5.4630e-01		1.0000e+00
			39.05		5.4027e-01		1.0000e+00
			39.1		5.3423e-01		1.0000e+00
			39.15		5.2820e-01		1.0000e+00
			39.2		5.2216e-01		1.0000e+00
			39.25		5.1614e-01		1.0000e+00
			39.3		5.1011e-01		1.0000e+00
			39.35		5.0408e-01		1.0000e+00
			39.4		4.9805e-01		1.0000e+00
			39.45		4.9348e-01		1.0000e+00
			39.5		4.8891e-01		1.0000e+00
			39.55		4.8434e-01		1.0000e+00
			39.6		4.7976e-01		1.0000e+00
			39.65		4.7520e-01		1.0000e+00
