BEGIN_SCAN_DATA
	FORMAT=CC-Export V1.9                  
	FILE_CREATION_DATE=
	LAST_MODIFIED=11-Jan-2023 10:50:14
	BEGIN_SCAN  1
		TASK_NAME=RayStation Phantom Profiles & PDDs
		PROGRAM=RayStation
		COMMENT=RayStation Script Export
		MEAS_DATE=11-Jan-2023 10:50:14
		LINAC=RayStation
		MODALITY=X
		ISOCENTER=1000.00
		INPLANE_AXIS=Y
		CROSSPLANE_AXIS=X
		DEPTH_AXIS=Z
		INPLANE_AXIS_DIR=GUN_TARGET
		CROSSPLANE_AXIS_DIR=LEFT_RIGHT
		DEPTH_AXIS_DIR=UP_DOWN
		ENERGY=6.3
		NOMINAL_DMAX=20.00
		SSD=1000.0
		SCD=1000.00
		WEDGE_ANGLE=0.00
		FIELD_INPLANE=150.0
		FIELD_CROSSPLANE=100.0
		FIELD_TYPE=IRREGULAR
		GANTRY=0.00
		GANTRY_UPRIGHT_POSITION=0
		GANTRY_ROTATION=CW
		COLL_ANGLE=0.00
		REF_FIELD_DEPTH=50.00
		REF_FIELD_DEFINED=ISOCENTER
		FIELD_INPLANE=150.0
		FIELD_CROSSPLANE=100.0
		SCAN_CURVETYPE=INPLANE_PROFILE
		SCAN_DEPTH=50.0
		SCAN_OFFAXIS_INPLANE=0.00
		SCAN_OFFAXIS_CROSSPLANE=0.00
		SCAN_ANGLE=0.00
		SCAN_DIAGONAL=NOT_DIAGONAL
		SCAN_DIRECTION=NEGATIVE
		MEAS_MEDIUM=WATER
		MEAS_UNIT=cGy
		INCLINATION_ANGLE=0.00
		PRESSURE=1013.20
		TEMPERATURE=20.00
		NORM_TEMPERATURE=20.00
		CORRECTION_FACTOR=1.0000;
		BEGIN_DATA
			-5.0		1.0198e-03		1.0000e+00
			-4.95		1.0310e-03		1.0000e+00
			-4.9		1.0421e-03		1.0000e+00
			-4.85		1.0533e-03		1.0000e+00
			-4.8		1.0645e-03		1.0000e+00
			-4.75		1.0726e-03		1.0000e+00
			-4.7		1.0807e-03		1.0000e+00
			-4.65		1.0888e-03		1.0000e+00
			-4.6		1.0969e-03		1.0000e+00
			-4.55		1.1112e-03		1.0000e+00
			-4.5		1.1255e-03		1.0000e+00
			-4.45		1.1397e-03		1.0000e+00
			-4.4		1.1540e-03		1.0000e+00
			-4.35		1.1626e-03		1.0000e+00
			-4.3		1.1711e-03		1.0000e+00
			-4.25		1.1796e-03		1.0000e+00
			-4.2		1.1881e-03		1.0000e+00
			-4.15		1.2038e-03		1.0000e+00
			-4.1		1.2195e-03		1.0000e+00
			-4.05		1.2352e-03		1.0000e+00
			-4.0		1.2508e-03		1.0000e+00
			-3.95		1.2590e-03		1.0000e+00
			-3.9		1.2671e-03		1.0000e+00
			-3.85		1.2752e-03		1.0000e+00
			-3.8		1.2833e-03		1.0000e+00
			-3.75		1.3012e-03		1.0000e+00
			-3.7		1.3192e-03		1.0000e+00
			-3.65		1.3371e-03		1.0000e+00
			-3.6		1.3551e-03		1.0000e+00
			-3.55		1.3628e-03		1.0000e+00
			-3.5		1.3705e-03		1.0000e+00
			-3.45		1.3782e-03		1.0000e+00
			-3.4		1.3859e-03		1.0000e+00
			-3.35		1.4054e-03		1.0000e+00
			-3.3		1.4249e-03		1.0000e+00
			-3.25		1.4444e-03		1.0000e+00
			-3.2		1.4639e-03		1.0000e+00
			-3.15		1.4720e-03		1.0000e+00
			-3.1		1.4801e-03		1.0000e+00
			-3.05		1.4882e-03		1.0000e+00
			-3.0		1.4963e-03		1.0000e+00
			-2.95		1.5174e-03		1.0000e+00
			-2.9		1.5384e-03		1.0000e+00
			-2.85		1.5595e-03		1.0000e+00
			-2.8		1.5805e-03		1.0000e+00
			-2.75		1.5884e-03		1.0000e+00
			-2.7		1.5964e-03		1.0000e+00
			-2.65		1.6043e-03		1.0000e+00
			-2.6		1.6122e-03		1.0000e+00
			-2.55		1.6354e-03		1.0000e+00
			-2.5		1.6586e-03		1.0000e+00
			-2.45		1.6818e-03		1.0000e+00
			-2.4		1.7050e-03		1.0000e+00
			-2.35		1.7126e-03		1.0000e+00
			-2.3		1.7203e-03		1.0000e+00
			-2.25		1.7279e-03		1.0000e+00
			-2.2		1.7356e-03		1.0000e+00
			-2.15		1.7608e-03		1.0000e+00
			-2.1		1.7860e-03		1.0000e+00
			-2.05		1.8111e-03		1.0000e+00
			-2.0		1.8363e-03		1.0000e+00
			-1.95		1.8450e-03		1.0000e+00
			-1.9		1.8537e-03		1.0000e+00
			-1.85		1.8625e-03		1.0000e+00
			-1.8		1.8712e-03		1.0000e+00
			-1.75		1.8996e-03		1.0000e+00
			-1.7		1.9280e-03		1.0000e+00
			-1.65		1.9563e-03		1.0000e+00
			-1.6		1.9847e-03		1.0000e+00
			-1.55		1.9934e-03		1.0000e+00
			-1.5		2.0022e-03		1.0000e+00
			-1.45		2.0109e-03		1.0000e+00
			-1.4		2.0196e-03		1.0000e+00
			-1.35		2.0502e-03		1.0000e+00
			-1.3		2.0808e-03		1.0000e+00
			-1.25		2.1114e-03		1.0000e+00
			-1.2		2.1420e-03		1.0000e+00
			-1.15		2.1509e-03		1.0000e+00
			-1.1		2.1598e-03		1.0000e+00
			-1.05		2.1687e-03		1.0000e+00
			-1.0		2.1776e-03		1.0000e+00
			-0.95		2.2106e-03		1.0000e+00
			-0.9		2.2435e-03		1.0000e+00
			-0.85		2.2764e-03		1.0000e+00
			-0.8		2.3093e-03		1.0000e+00
			-0.75		2.3175e-03		1.0000e+00
			-0.7		2.3258e-03		1.0000e+00
			-0.65		2.3341e-03		1.0000e+00
			-0.6		2.3423e-03		1.0000e+00
			-0.55		2.3774e-03		1.0000e+00
			-0.5		2.4125e-03		1.0000e+00
			-0.45		2.4476e-03		1.0000e+00
			-0.4		2.4827e-03		1.0000e+00
			-0.35		2.4898e-03		1.0000e+00
			-0.3		2.4970e-03		1.0000e+00
			-0.25		2.5041e-03		1.0000e+00
			-0.2		2.5113e-03		1.0000e+00
			-0.15		2.5484e-03		1.0000e+00
			-0.1		2.5856e-03		1.0000e+00
			-0.05		2.6227e-03		1.0000e+00
			-0.0		2.6598e-03		1.0000e+00
			0.05		2.6677e-03		1.0000e+00
			0.1		2.6756e-03		1.0000e+00
			0.15		2.6835e-03		1.0000e+00
			0.2		2.6914e-03		1.0000e+00
			0.25		2.7306e-03		1.0000e+00
			0.3		2.7698e-03		1.0000e+00
			0.35		2.8090e-03		1.0000e+00
			0.4		2.8482e-03		1.0000e+00
			0.45		2.8554e-03		1.0000e+00
			0.5		2.8625e-03		1.0000e+00
			0.55		2.8696e-03		1.0000e+00
			0.6		2.8768e-03		1.0000e+00
			0.65		2.9194e-03		1.0000e+00
			0.7		2.9620e-03		1.0000e+00
			0.75		3.0046e-03		1.0000e+00
			0.8		3.0473e-03		1.0000e+00
			0.85		3.0542e-03		1.0000e+00
			0.9		3.0612e-03		1.0000e+00
			0.95		3.0681e-03		1.0000e+00
			1.0		3.0750e-03		1.0000e+00
			1.05		3.1193e-03		1.0000e+00
			1.1		3.1636e-03		1.0000e+00
			1.15		3.2078e-03		1.0000e+00
			1.2		3.2521e-03		1.0000e+00
			1.25		3.2603e-03		1.0000e+00
			1.3		3.2686e-03		1.0000e+00
			1.35		3.2769e-03		1.0000e+00
			1.4		3.2852e-03		1.0000e+00
			1.45		3.3314e-03		1.0000e+00
			1.5		3.3777e-03		1.0000e+00
			1.55		3.4240e-03		1.0000e+00
			1.6		3.4702e-03		1.0000e+00
			1.65		3.4779e-03		1.0000e+00
			1.7		3.4855e-03		1.0000e+00
			1.75		3.4931e-03		1.0000e+00
			1.8		3.5007e-03		1.0000e+00
			1.85		3.5502e-03		1.0000e+00
			1.9		3.5998e-03		1.0000e+00
			1.95		3.6493e-03		1.0000e+00
			2.0		3.6989e-03		1.0000e+00
			2.05		3.7067e-03		1.0000e+00
			2.1		3.7145e-03		1.0000e+00
			2.15		3.7223e-03		1.0000e+00
			2.2		3.7301e-03		1.0000e+00
			2.25		3.7807e-03		1.0000e+00
			2.3		3.8313e-03		1.0000e+00
			2.35		3.8820e-03		1.0000e+00
			2.4		3.9326e-03		1.0000e+00
			2.45		3.9422e-03		1.0000e+00
			2.5		3.9518e-03		1.0000e+00
			2.55		3.9614e-03		1.0000e+00
			2.6		3.9710e-03		1.0000e+00
			2.65		4.0232e-03		1.0000e+00
			2.7		4.0754e-03		1.0000e+00
			2.75		4.1276e-03		1.0000e+00
			2.8		4.1797e-03		1.0000e+00
			2.85		4.1897e-03		1.0000e+00
			2.9		4.1998e-03		1.0000e+00
			2.95		4.2098e-03		1.0000e+00
			3.0		4.2198e-03		1.0000e+00
			3.05		4.2744e-03		1.0000e+00
			3.1		4.3291e-03		1.0000e+00
			3.15		4.3837e-03		1.0000e+00
			3.2		4.4383e-03		1.0000e+00
			3.25		4.4492e-03		1.0000e+00
			3.3		4.4601e-03		1.0000e+00
			3.35		4.4710e-03		1.0000e+00
			3.4		4.4819e-03		1.0000e+00
			3.45		4.5376e-03		1.0000e+00
			3.5		4.5934e-03		1.0000e+00
			3.55		4.6491e-03		1.0000e+00
			3.6		4.7049e-03		1.0000e+00
			3.65		4.7174e-03		1.0000e+00
			3.7		4.7298e-03		1.0000e+00
			3.75		4.7423e-03		1.0000e+00
			3.8		4.7547e-03		1.0000e+00
			3.85		4.8119e-03		1.0000e+00
			3.9		4.8691e-03		1.0000e+00
			3.95		4.9262e-03		1.0000e+00
			4.0		4.9834e-03		1.0000e+00
			4.05		4.9973e-03		1.0000e+00
			4.1		5.0112e-03		1.0000e+00
			4.15		5.0252e-03		1.0000e+00
			4.2		5.0391e-03		1.0000e+00
			4.25		5.0976e-03		1.0000e+00
			4.3		5.1560e-03		1.0000e+00
			4.35		5.2145e-03		1.0000e+00
			4.4		5.2729e-03		1.0000e+00
			4.45		5.2888e-03		1.0000e+00
			4.5		5.3046e-03		1.0000e+00
			4.55		5.3205e-03		1.0000e+00
			4.6		5.3363e-03		1.0000e+00
			4.65		5.3949e-03		1.0000e+00
			4.7		5.4535e-03		1.0000e+00
			4.75		5.5121e-03		1.0000e+00
			4.8		5.5707e-03		1.0000e+00
			4.85		5.5893e-03		1.0000e+00
			4.9		5.6078e-03		1.0000e+00
			4.95		5.6263e-03		1.0000e+00
			5.0		5.6448e-03		1.0000e+00
			5.05		5.7048e-03		1.0000e+00
			5.1		5.7647e-03		1.0000e+00
			5.15		5.8246e-03		1.0000e+00
			5.2		5.8846e-03		1.0000e+00
			5.25		5.9046e-03		1.0000e+00
			5.3		5.9247e-03		1.0000e+00
			5.35		5.9447e-03		1.0000e+00
			5.4		5.9648e-03		1.0000e+00
			5.45		6.0251e-03		1.0000e+00
			5.5		6.0853e-03		1.0000e+00
			5.55		6.1456e-03		1.0000e+00
			5.6		6.2059e-03		1.0000e+00
			5.65		6.2293e-03		1.0000e+00
			5.7		6.2527e-03		1.0000e+00
			5.75		6.2762e-03		1.0000e+00
			5.8		6.2996e-03		1.0000e+00
			5.85		6.4448e-03		1.0000e+00
			5.9		6.5900e-03		1.0000e+00
			5.95		6.7352e-03		1.0000e+00
			6.0		6.8803e-03		1.0000e+00
			6.05		6.9388e-03		1.0000e+00
			6.1		6.9972e-03		1.0000e+00
			6.15		7.0556e-03		1.0000e+00
			6.2		7.1141e-03		1.0000e+00
			6.25		7.4620e-03		1.0000e+00
			6.3		7.8100e-03		1.0000e+00
			6.35		8.1580e-03		1.0000e+00
			6.4		8.5060e-03		1.0000e+00
			6.45		8.6577e-03		1.0000e+00
			6.5		8.8093e-03		1.0000e+00
			6.55		8.9610e-03		1.0000e+00
			6.6		9.1127e-03		1.0000e+00
			6.65		9.5375e-03		1.0000e+00
			6.7		9.9624e-03		1.0000e+00
			6.75		1.0387e-02		1.0000e+00
			6.8		1.0812e-02		1.0000e+00
			6.85		1.1021e-02		1.0000e+00
			6.9		1.1231e-02		1.0000e+00
			6.95		1.1440e-02		1.0000e+00
			7.0		1.1649e-02		1.0000e+00
			7.05		1.2165e-02		1.0000e+00
			7.1		1.2681e-02		1.0000e+00
			7.15		1.3197e-02		1.0000e+00
			7.2		1.3713e-02		1.0000e+00
			7.25		1.3989e-02		1.0000e+00
			7.3		1.4265e-02		1.0000e+00
			7.35		1.4542e-02		1.0000e+00
			7.4		1.4818e-02		1.0000e+00
			7.45		1.5447e-02		1.0000e+00
			7.5		1.6075e-02		1.0000e+00
			7.55		1.6704e-02		1.0000e+00
			7.6		1.7333e-02		1.0000e+00
			7.65		1.7701e-02		1.0000e+00
			7.7		1.8070e-02		1.0000e+00
			7.75		1.8439e-02		1.0000e+00
			7.8		1.8808e-02		1.0000e+00
			7.85		1.9542e-02		1.0000e+00
			7.9		2.0275e-02		1.0000e+00
			7.95		2.1009e-02		1.0000e+00
			8.0		2.1743e-02		1.0000e+00
			8.05		2.2234e-02		1.0000e+00
			8.1		2.2725e-02		1.0000e+00
			8.15		2.3216e-02		1.0000e+00
			8.2		2.3707e-02		1.0000e+00
			8.25		2.4552e-02		1.0000e+00
			8.3		2.5397e-02		1.0000e+00
			8.35		2.6243e-02		1.0000e+00
			8.4		2.7088e-02		1.0000e+00
			8.45		2.7722e-02		1.0000e+00
			8.5		2.8357e-02		1.0000e+00
			8.55		2.8991e-02		1.0000e+00
			8.6		2.9626e-02		1.0000e+00
			8.65		3.0603e-02		1.0000e+00
			8.7		3.1580e-02		1.0000e+00
			8.75		3.2557e-02		1.0000e+00
			8.8		3.3534e-02		1.0000e+00
			8.85		3.4355e-02		1.0000e+00
			8.9		3.5176e-02		1.0000e+00
			8.95		3.5998e-02		1.0000e+00
			9.0		3.6819e-02		1.0000e+00
			9.05		3.7905e-02		1.0000e+00
			9.1		3.8991e-02		1.0000e+00
			9.15		4.0078e-02		1.0000e+00
			9.2		4.1164e-02		1.0000e+00
			9.25		4.2222e-02		1.0000e+00
			9.3		4.3281e-02		1.0000e+00
			9.35		4.4339e-02		1.0000e+00
			9.4		4.5398e-02		1.0000e+00
			9.45		4.6587e-02		1.0000e+00
			9.5		4.7777e-02		1.0000e+00
			9.55		4.8967e-02		1.0000e+00
			9.6		5.0156e-02		1.0000e+00
			9.65		5.1492e-02		1.0000e+00
			9.7		5.2827e-02		1.0000e+00
			9.75		5.4162e-02		1.0000e+00
			9.8		5.5497e-02		1.0000e+00
			9.85		5.6796e-02		1.0000e+00
			9.9		5.8096e-02		1.0000e+00
			9.95		5.9395e-02		1.0000e+00
			10.0		6.0695e-02		1.0000e+00
			10.05		6.2361e-02		1.0000e+00
			10.1		6.4028e-02		1.0000e+00
			10.15		6.5695e-02		1.0000e+00
			10.2		6.7361e-02		1.0000e+00
			10.25		6.8752e-02		1.0000e+00
			10.3		7.0142e-02		1.0000e+00
			10.35		7.1533e-02		1.0000e+00
			10.4		7.2924e-02		1.0000e+00
			10.45		7.4987e-02		1.0000e+00
			10.5		7.7051e-02		1.0000e+00
			10.55		7.9114e-02		1.0000e+00
			10.6		8.1178e-02		1.0000e+00
			10.65		8.2655e-02		1.0000e+00
			10.7		8.4132e-02		1.0000e+00
			10.75		8.5610e-02		1.0000e+00
			10.8		8.7087e-02		1.0000e+00
			10.85		8.9564e-02		1.0000e+00
			10.9		9.2041e-02		1.0000e+00
			10.95		9.4518e-02		1.0000e+00
			11.0		9.6995e-02		1.0000e+00
			11.05		9.8567e-02		1.0000e+00
			11.1		1.0014e-01		1.0000e+00
			11.15		1.0171e-01		1.0000e+00
			11.2		1.0328e-01		1.0000e+00
			11.25		1.0622e-01		1.0000e+00
			11.3		1.0916e-01		1.0000e+00
			11.35		1.1209e-01		1.0000e+00
			11.4		1.1503e-01		1.0000e+00
			11.45		1.1670e-01		1.0000e+00
			11.5		1.1836e-01		1.0000e+00
			11.55		1.2003e-01		1.0000e+00
			11.6		1.2170e-01		1.0000e+00
			11.65		1.2516e-01		1.0000e+00
			11.7		1.2862e-01		1.0000e+00
			11.75		1.3208e-01		1.0000e+00
			11.8		1.3554e-01		1.0000e+00
			11.85		1.3731e-01		1.0000e+00
			11.9		1.3909e-01		1.0000e+00
			11.95		1.4086e-01		1.0000e+00
			12.0		1.4264e-01		1.0000e+00
			12.05		3.1747e-01		1.0000e+00
			12.1		4.9230e-01		1.0000e+00
			12.15		6.6714e-01		1.0000e+00
			12.2		8.4197e-01		1.0000e+00
			12.25		8.5149e-01		1.0000e+00
			12.3		8.6101e-01		1.0000e+00
			12.35		8.7053e-01		1.0000e+00
			12.4		8.8004e-01		1.0000e+00
			12.45		8.8957e-01		1.0000e+00
			12.5		8.9909e-01		1.0000e+00
			12.55		9.0861e-01		1.0000e+00
			12.6		9.1814e-01		1.0000e+00
			12.65		9.2766e-01		1.0000e+00
			12.7		9.3719e-01		1.0000e+00
			12.75		9.4672e-01		1.0000e+00
			12.8		9.5624e-01		1.0000e+00
			12.85		9.6577e-01		1.0000e+00
			12.9		9.7531e-01		1.0000e+00
			12.95		9.8484e-01		1.0000e+00
			13.0		9.9437e-01		1.0000e+00
			13.05		1.0022e+00		1.0000e+00
			13.1		1.0101e+00		1.0000e+00
			13.15		1.0179e+00		1.0000e+00
			13.2		1.0257e+00		1.0000e+00
			13.25		1.0336e+00		1.0000e+00
			13.3		1.0414e+00		1.0000e+00
			13.35		1.0493e+00		1.0000e+00
			13.4		1.0571e+00		1.0000e+00
			13.45		1.0650e+00		1.0000e+00
			13.5		1.0728e+00		1.0000e+00
			13.55		1.0807e+00		1.0000e+00
			13.6		1.0885e+00		1.0000e+00
			13.65		1.0964e+00		1.0000e+00
			13.7		1.1042e+00		1.0000e+00
			13.75		1.1121e+00		1.0000e+00
			13.8		1.1199e+00		1.0000e+00
			13.85		1.1324e+00		1.0000e+00
			13.9		1.1449e+00		1.0000e+00
			13.95		1.1574e+00		1.0000e+00
			14.0		1.1699e+00		1.0000e+00
			14.05		1.1824e+00		1.0000e+00
			14.1		1.1949e+00		1.0000e+00
			14.15		1.2074e+00		1.0000e+00
			14.2		1.2199e+00		1.0000e+00
			14.25		1.2324e+00		1.0000e+00
			14.3		1.2449e+00		1.0000e+00
			14.35		1.2574e+00		1.0000e+00
			14.4		1.2699e+00		1.0000e+00
			14.45		1.2824e+00		1.0000e+00
			14.5		1.2949e+00		1.0000e+00
			14.55		1.3074e+00		1.0000e+00
			14.6		1.3199e+00		1.0000e+00
			14.65		1.3363e+00		1.0000e+00
			14.7		1.3526e+00		1.0000e+00
			14.75		1.3690e+00		1.0000e+00
			14.8		1.3854e+00		1.0000e+00
			14.85		1.4018e+00		1.0000e+00
			14.9		1.4181e+00		1.0000e+00
			14.95		1.4345e+00		1.0000e+00
			15.0		1.4509e+00		1.0000e+00
			15.05		1.4673e+00		1.0000e+00
			15.1		1.4836e+00		1.0000e+00
			15.15		1.5000e+00		1.0000e+00
			15.2		1.5164e+00		1.0000e+00
			15.25		1.5328e+00		1.0000e+00
			15.3		1.5492e+00		1.0000e+00
			15.35		1.5656e+00		1.0000e+00
			15.4		1.5819e+00		1.0000e+00
			15.45		1.5991e+00		1.0000e+00
			15.5		1.6163e+00		1.0000e+00
			15.55		1.6335e+00		1.0000e+00
			15.6		1.6507e+00		1.0000e+00
			15.65		1.6679e+00		1.0000e+00
			15.7		1.6850e+00		1.0000e+00
			15.75		1.7022e+00		1.0000e+00
			15.8		1.7194e+00		1.0000e+00
			15.85		1.7366e+00		1.0000e+00
			15.9		1.7538e+00		1.0000e+00
			15.95		1.7710e+00		1.0000e+00
			16.0		1.7882e+00		1.0000e+00
			16.05		1.8054e+00		1.0000e+00
			16.1		1.8226e+00		1.0000e+00
			16.15		1.8398e+00		1.0000e+00
			16.2		1.8570e+00		1.0000e+00
			16.25		1.8783e+00		1.0000e+00
			16.3		1.8996e+00		1.0000e+00
			16.35		1.9208e+00		1.0000e+00
			16.4		1.9421e+00		1.0000e+00
			16.45		1.9634e+00		1.0000e+00
			16.5		1.9847e+00		1.0000e+00
			16.55		2.0060e+00		1.0000e+00
			16.6		2.0273e+00		1.0000e+00
			16.65		2.0486e+00		1.0000e+00
			16.7		2.0699e+00		1.0000e+00
			16.75		2.0912e+00		1.0000e+00
			16.8		2.1126e+00		1.0000e+00
			16.85		2.1339e+00		1.0000e+00
			16.9		2.1552e+00		1.0000e+00
			16.95		2.1765e+00		1.0000e+00
			17.0		2.1978e+00		1.0000e+00
			17.05		2.2542e+00		1.0000e+00
			17.1		2.3107e+00		1.0000e+00
			17.15		2.3672e+00		1.0000e+00
			17.2		2.4236e+00		1.0000e+00
			17.25		2.4801e+00		1.0000e+00
			17.3		2.5366e+00		1.0000e+00
			17.35		2.5930e+00		1.0000e+00
			17.4		2.6495e+00		1.0000e+00
			17.45		2.7075e+00		1.0000e+00
			17.5		2.7654e+00		1.0000e+00
			17.55		2.8234e+00		1.0000e+00
			17.6		2.8813e+00		1.0000e+00
			17.65		2.9400e+00		1.0000e+00
			17.7		2.9987e+00		1.0000e+00
			17.75		3.0573e+00		1.0000e+00
			17.8		3.1160e+00		1.0000e+00
			17.85		3.2683e+00		1.0000e+00
			17.9		3.4207e+00		1.0000e+00
			17.95		3.5730e+00		1.0000e+00
			18.0		3.7254e+00		1.0000e+00
			18.05		4.2151e+00		1.0000e+00
			18.1		4.7048e+00		1.0000e+00
			18.15		5.1945e+00		1.0000e+00
			18.2		5.6842e+00		1.0000e+00
			18.25		6.5262e+00		1.0000e+00
			18.3		7.3681e+00		1.0000e+00
			18.35		8.2100e+00		1.0000e+00
			18.4		9.0520e+00		1.0000e+00
			18.45		9.5004e+00		1.0000e+00
			18.5		9.9489e+00		1.0000e+00
			18.55		1.0397e+01		1.0000e+00
			18.6		1.0846e+01		1.0000e+00
			18.65		1.1022e+01		1.0000e+00
			18.7		1.1198e+01		1.0000e+00
			18.75		1.1373e+01		1.0000e+00
			18.8		1.1549e+01		1.0000e+00
			18.85		1.1624e+01		1.0000e+00
			18.9		1.1699e+01		1.0000e+00
			18.95		1.1773e+01		1.0000e+00
			19.0		1.1848e+01		1.0000e+00
			19.05		1.1885e+01		1.0000e+00
			19.1		1.1922e+01		1.0000e+00
			19.15		1.1960e+01		1.0000e+00
			19.2		1.1997e+01		1.0000e+00
			19.25		1.2024e+01		1.0000e+00
			19.3		1.2051e+01		1.0000e+00
			19.35		1.2077e+01		1.0000e+00
			19.4		1.2104e+01		1.0000e+00
			19.45		1.2125e+01		1.0000e+00
			19.5		1.2145e+01		1.0000e+00
			19.55		1.2166e+01		1.0000e+00
			19.6		1.2186e+01		1.0000e+00
			19.65		1.2207e+01		1.0000e+00
			19.7		1.2227e+01		1.0000e+00
			19.75		1.2248e+01		1.0000e+00
			19.8		1.2268e+01		1.0000e+00
			19.85		1.2289e+01		1.0000e+00
			19.9		1.2309e+01		1.0000e+00
			19.95		1.2330e+01		1.0000e+00
			20.0		1.2350e+01		1.0000e+00
			20.05		1.2371e+01		1.0000e+00
			20.1		1.2391e+01		1.0000e+00
			20.15		1.2412e+01		1.0000e+00
			20.2		1.2432e+01		1.0000e+00
			20.25		1.2451e+01		1.0000e+00
			20.3		1.2470e+01		1.0000e+00
			20.35		1.2488e+01		1.0000e+00
			20.4		1.2507e+01		1.0000e+00
			20.45		1.2526e+01		1.0000e+00
			20.5		1.2544e+01		1.0000e+00
			20.55		1.2563e+01		1.0000e+00
			20.6		1.2582e+01		1.0000e+00
			20.65		1.2600e+01		1.0000e+00
			20.7		1.2619e+01		1.0000e+00
			20.75		1.2637e+01		1.0000e+00
			20.8		1.2656e+01		1.0000e+00
			20.85		1.2675e+01		1.0000e+00
			20.9		1.2693e+01		1.0000e+00
			20.95		1.2712e+01		1.0000e+00
			21.0		1.2730e+01		1.0000e+00
			21.05		1.2741e+01		1.0000e+00
			21.1		1.2752e+01		1.0000e+00
			21.15		1.2763e+01		1.0000e+00
			21.2		1.2774e+01		1.0000e+00
			21.25		1.2785e+01		1.0000e+00
			21.3		1.2795e+01		1.0000e+00
			21.35		1.2806e+01		1.0000e+00
			21.4		1.2817e+01		1.0000e+00
			21.45		1.2828e+01		1.0000e+00
			21.5		1.2839e+01		1.0000e+00
			21.55		1.2849e+01		1.0000e+00
			21.6		1.2860e+01		1.0000e+00
			21.65		1.2871e+01		1.0000e+00
			21.7		1.2882e+01		1.0000e+00
			21.75		1.2892e+01		1.0000e+00
			21.8		1.2903e+01		1.0000e+00
			21.85		1.2913e+01		1.0000e+00
			21.9		1.2922e+01		1.0000e+00
			21.95		1.2932e+01		1.0000e+00
			22.0		1.2941e+01		1.0000e+00
			22.05		1.2950e+01		1.0000e+00
			22.1		1.2960e+01		1.0000e+00
			22.15		1.2969e+01		1.0000e+00
			22.2		1.2979e+01		1.0000e+00
			22.25		1.2988e+01		1.0000e+00
			22.3		1.2997e+01		1.0000e+00
			22.35		1.3007e+01		1.0000e+00
			22.4		1.3016e+01		1.0000e+00
			22.45		1.3026e+01		1.0000e+00
			22.5		1.3035e+01		1.0000e+00
			22.55		1.3044e+01		1.0000e+00
			22.6		1.3054e+01		1.0000e+00
			22.65		1.3063e+01		1.0000e+00
			22.7		1.3072e+01		1.0000e+00
			22.75		1.3081e+01		1.0000e+00
			22.8		1.3090e+01		1.0000e+00
			22.85		1.3099e+01		1.0000e+00
			22.9		1.3108e+01		1.0000e+00
			22.95		1.3117e+01		1.0000e+00
			23.0		1.3126e+01		1.0000e+00
			23.05		1.3135e+01		1.0000e+00
			23.1		1.3144e+01		1.0000e+00
			23.15		1.3153e+01		1.0000e+00
			23.2		1.3162e+01		1.0000e+00
			23.25		1.3171e+01		1.0000e+00
			23.3		1.3180e+01		1.0000e+00
			23.35		1.3189e+01		1.0000e+00
			23.4		1.3198e+01		1.0000e+00
			23.45		1.3204e+01		1.0000e+00
			23.5		1.3210e+01		1.0000e+00
			23.55		1.3217e+01		1.0000e+00
			23.6		1.3223e+01		1.0000e+00
			23.65		1.3229e+01		1.0000e+00
			23.7		1.3235e+01		1.0000e+00
			23.75		1.3242e+01		1.0000e+00
			23.8		1.3248e+01		1.0000e+00
			23.85		1.3254e+01		1.0000e+00
			23.9		1.3260e+01		1.0000e+00
			23.95		1.3266e+01		1.0000e+00
			24.0		1.3273e+01		1.0000e+00
			24.05		1.3279e+01		1.0000e+00
			24.1		1.3285e+01		1.0000e+00
			24.15		1.3291e+01		1.0000e+00
			24.2		1.3298e+01		1.0000e+00
			24.25		1.3301e+01		1.0000e+00
			24.3		1.3305e+01		1.0000e+00
			24.35		1.3309e+01		1.0000e+00
			24.4		1.3313e+01		1.0000e+00
			24.45		1.3317e+01		1.0000e+00
			24.5		1.3321e+01		1.0000e+00
			24.55		1.3324e+01		1.0000e+00
			24.6		1.3328e+01		1.0000e+00
			24.65		1.3332e+01		1.0000e+00
			24.7		1.3336e+01		1.0000e+00
			24.75		1.3340e+01		1.0000e+00
			24.8		1.3343e+01		1.0000e+00
			24.85		1.3347e+01		1.0000e+00
			24.9		1.3351e+01		1.0000e+00
			24.95		1.3355e+01		1.0000e+00
			25.0		1.3359e+01		1.0000e+00
			25.05		1.3355e+01		1.0000e+00
			25.1		1.3351e+01		1.0000e+00
			25.15		1.3347e+01		1.0000e+00
			25.2		1.3343e+01		1.0000e+00
			25.25		1.3340e+01		1.0000e+00
			25.3		1.3336e+01		1.0000e+00
			25.35		1.3332e+01		1.0000e+00
			25.4		1.3328e+01		1.0000e+00
			25.45		1.3324e+01		1.0000e+00
			25.5		1.3321e+01		1.0000e+00
			25.55		1.3317e+01		1.0000e+00
			25.6		1.3313e+01		1.0000e+00
			25.65		1.3309e+01		1.0000e+00
			25.7		1.3305e+01		1.0000e+00
			25.75		1.3301e+01		1.0000e+00
			25.8		1.3298e+01		1.0000e+00
			25.85		1.3291e+01		1.0000e+00
			25.9		1.3285e+01		1.0000e+00
			25.95		1.3279e+01		1.0000e+00
			26.0		1.3273e+01		1.0000e+00
			26.05		1.3267e+01		1.0000e+00
			26.1		1.3260e+01		1.0000e+00
			26.15		1.3254e+01		1.0000e+00
			26.2		1.3248e+01		1.0000e+00
			26.25		1.3242e+01		1.0000e+00
			26.3		1.3235e+01		1.0000e+00
			26.35		1.3229e+01		1.0000e+00
			26.4		1.3223e+01		1.0000e+00
			26.45		1.3217e+01		1.0000e+00
			26.5		1.3210e+01		1.0000e+00
			26.55		1.3204e+01		1.0000e+00
			26.6		1.3198e+01		1.0000e+00
			26.65		1.3189e+01		1.0000e+00
			26.7		1.3180e+01		1.0000e+00
			26.75		1.3171e+01		1.0000e+00
			26.8		1.3162e+01		1.0000e+00
			26.85		1.3153e+01		1.0000e+00
			26.9		1.3144e+01		1.0000e+00
			26.95		1.3135e+01		1.0000e+00
			27.0		1.3126e+01		1.0000e+00
			27.05		1.3117e+01		1.0000e+00
			27.1		1.3108e+01		1.0000e+00
			27.15		1.3099e+01		1.0000e+00
			27.2		1.3090e+01		1.0000e+00
			27.25		1.3081e+01		1.0000e+00
			27.3		1.3072e+01		1.0000e+00
			27.35		1.3063e+01		1.0000e+00
			27.4		1.3054e+01		1.0000e+00
			27.45		1.3045e+01		1.0000e+00
			27.5		1.3035e+01		1.0000e+00
			27.55		1.3026e+01		1.0000e+00
			27.6		1.3016e+01		1.0000e+00
			27.65		1.3007e+01		1.0000e+00
			27.7		1.2997e+01		1.0000e+00
			27.75		1.2988e+01		1.0000e+00
			27.8		1.2979e+01		1.0000e+00
			27.85		1.2969e+01		1.0000e+00
			27.9		1.2960e+01		1.0000e+00
			27.95		1.2950e+01		1.0000e+00
			28.0		1.2941e+01		1.0000e+00
			28.05		1.2931e+01		1.0000e+00
			28.1		1.2922e+01		1.0000e+00
			28.15		1.2912e+01		1.0000e+00
			28.2		1.2903e+01		1.0000e+00
			28.25		1.2892e+01		1.0000e+00
			28.3		1.2882e+01		1.0000e+00
			28.35		1.2871e+01		1.0000e+00
			28.4		1.2860e+01		1.0000e+00
			28.45		1.2849e+01		1.0000e+00
			28.5		1.2838e+01		1.0000e+00
			28.55		1.2828e+01		1.0000e+00
			28.6		1.2817e+01		1.0000e+00
			28.65		1.2806e+01		1.0000e+00
			28.7		1.2795e+01		1.0000e+00
			28.75		1.2784e+01		1.0000e+00
			28.8		1.2774e+01		1.0000e+00
			28.85		1.2763e+01		1.0000e+00
			28.9		1.2752e+01		1.0000e+00
			28.95		1.2741e+01		1.0000e+00
			29.0		1.2730e+01		1.0000e+00
			29.05		1.2712e+01		1.0000e+00
			29.1		1.2693e+01		1.0000e+00
			29.15		1.2675e+01		1.0000e+00
			29.2		1.2656e+01		1.0000e+00
			29.25		1.2638e+01		1.0000e+00
			29.3		1.2619e+01		1.0000e+00
			29.35		1.2601e+01		1.0000e+00
			29.4		1.2582e+01		1.0000e+00
			29.45		1.2563e+01		1.0000e+00
			29.5		1.2545e+01		1.0000e+00
			29.55		1.2526e+01		1.0000e+00
			29.6		1.2508e+01		1.0000e+00
			29.65		1.2489e+01		1.0000e+00
			29.7		1.2470e+01		1.0000e+00
			29.75		1.2452e+01		1.0000e+00
			29.8		1.2433e+01		1.0000e+00
			29.85		1.2413e+01		1.0000e+00
			29.9		1.2392e+01		1.0000e+00
			29.95		1.2371e+01		1.0000e+00
			30.0		1.2351e+01		1.0000e+00
			30.05		1.2330e+01		1.0000e+00
			30.1		1.2309e+01		1.0000e+00
			30.15		1.2289e+01		1.0000e+00
			30.2		1.2268e+01		1.0000e+00
			30.25		1.2247e+01		1.0000e+00
			30.3		1.2227e+01		1.0000e+00
			30.35		1.2206e+01		1.0000e+00
			30.4		1.2185e+01		1.0000e+00
			30.45		1.2165e+01		1.0000e+00
			30.5		1.2144e+01		1.0000e+00
			30.55		1.2123e+01		1.0000e+00
			30.6		1.2103e+01		1.0000e+00
			30.65		1.2076e+01		1.0000e+00
			30.7		1.2050e+01		1.0000e+00
			30.75		1.2024e+01		1.0000e+00
			30.8		1.1998e+01		1.0000e+00
			30.85		1.1960e+01		1.0000e+00
			30.9		1.1923e+01		1.0000e+00
			30.95		1.1886e+01		1.0000e+00
			31.0		1.1849e+01		1.0000e+00
			31.05		1.1774e+01		1.0000e+00
			31.1		1.1698e+01		1.0000e+00
			31.15		1.1623e+01		1.0000e+00
			31.2		1.1548e+01		1.0000e+00
			31.25		1.1372e+01		1.0000e+00
			31.3		1.1197e+01		1.0000e+00
			31.35		1.1022e+01		1.0000e+00
			31.4		1.0847e+01		1.0000e+00
			31.45		1.0398e+01		1.0000e+00
			31.5		9.9496e+00		1.0000e+00
			31.55		9.5010e+00		1.0000e+00
			31.6		9.0525e+00		1.0000e+00
			31.65		8.2109e+00		1.0000e+00
			31.7		7.3693e+00		1.0000e+00
			31.75		6.5277e+00		1.0000e+00
			31.8		5.6861e+00		1.0000e+00
			31.85		5.1960e+00		1.0000e+00
			31.9		4.7059e+00		1.0000e+00
			31.95		4.2158e+00		1.0000e+00
			32.0		3.7257e+00		1.0000e+00
			32.05		3.5696e+00		1.0000e+00
			32.1		3.4136e+00		1.0000e+00
			32.15		3.2575e+00		1.0000e+00
			32.2		3.1014e+00		1.0000e+00
			32.25		3.0449e+00		1.0000e+00
			32.3		2.9884e+00		1.0000e+00
			32.35		2.9319e+00		1.0000e+00
			32.4		2.8754e+00		1.0000e+00
			32.45		2.8189e+00		1.0000e+00
			32.5		2.7624e+00		1.0000e+00
			32.55		2.7060e+00		1.0000e+00
			32.6		2.6495e+00		1.0000e+00
			32.65		2.5930e+00		1.0000e+00
			32.7		2.5365e+00		1.0000e+00
			32.75		2.4800e+00		1.0000e+00
			32.8		2.4236e+00		1.0000e+00
			32.85		2.3671e+00		1.0000e+00
			32.9		2.3107e+00		1.0000e+00
			32.95		2.2542e+00		1.0000e+00
			33.0		2.1977e+00		1.0000e+00
			33.05		2.1764e+00		1.0000e+00
			33.1		2.1551e+00		1.0000e+00
			33.15		2.1338e+00		1.0000e+00
			33.2		2.1125e+00		1.0000e+00
			33.25		2.0912e+00		1.0000e+00
			33.3		2.0699e+00		1.0000e+00
			33.35		2.0486e+00		1.0000e+00
			33.4		2.0273e+00		1.0000e+00
			33.45		2.0060e+00		1.0000e+00
			33.5		1.9847e+00		1.0000e+00
			33.55		1.9634e+00		1.0000e+00
			33.6		1.9421e+00		1.0000e+00
			33.65		1.9209e+00		1.0000e+00
			33.7		1.8996e+00		1.0000e+00
			33.75		1.8783e+00		1.0000e+00
			33.8		1.8570e+00		1.0000e+00
			33.85		1.8398e+00		1.0000e+00
			33.9		1.8226e+00		1.0000e+00
			33.95		1.8054e+00		1.0000e+00
			34.0		1.7882e+00		1.0000e+00
			34.05		1.7710e+00		1.0000e+00
			34.1		1.7538e+00		1.0000e+00
			34.15		1.7366e+00		1.0000e+00
			34.2		1.7194e+00		1.0000e+00
			34.25		1.7023e+00		1.0000e+00
			34.3		1.6851e+00		1.0000e+00
			34.35		1.6679e+00		1.0000e+00
			34.4		1.6507e+00		1.0000e+00
			34.45		1.6335e+00		1.0000e+00
			34.5		1.6163e+00		1.0000e+00
			34.55		1.5991e+00		1.0000e+00
			34.6		1.5820e+00		1.0000e+00
			34.65		1.5656e+00		1.0000e+00
			34.7		1.5492e+00		1.0000e+00
			34.75		1.5328e+00		1.0000e+00
			34.8		1.5164e+00		1.0000e+00
			34.85		1.5000e+00		1.0000e+00
			34.9		1.4837e+00		1.0000e+00
			34.95		1.4673e+00		1.0000e+00
			35.0		1.4509e+00		1.0000e+00
			35.05		1.4345e+00		1.0000e+00
			35.1		1.4182e+00		1.0000e+00
			35.15		1.4018e+00		1.0000e+00
			35.2		1.3854e+00		1.0000e+00
			35.25		1.3690e+00		1.0000e+00
			35.3		1.3527e+00		1.0000e+00
			35.35		1.3363e+00		1.0000e+00
			35.4		1.3199e+00		1.0000e+00
			35.45		1.3074e+00		1.0000e+00
			35.5		1.2949e+00		1.0000e+00
			35.55		1.2824e+00		1.0000e+00
			35.6		1.2699e+00		1.0000e+00
			35.65		1.2574e+00		1.0000e+00
			35.7		1.2449e+00		1.0000e+00
			35.75		1.2324e+00		1.0000e+00
			35.8		1.2199e+00		1.0000e+00
			35.85		1.2074e+00		1.0000e+00
			35.9		1.1949e+00		1.0000e+00
			35.95		1.1824e+00		1.0000e+00
			36.0		1.1699e+00		1.0000e+00
			36.05		1.1574e+00		1.0000e+00
			36.1		1.1449e+00		1.0000e+00
			36.15		1.1324e+00		1.0000e+00
			36.2		1.1199e+00		1.0000e+00
			36.25		1.1120e+00		1.0000e+00
			36.3		1.1042e+00		1.0000e+00
			36.35		1.0963e+00		1.0000e+00
			36.4		1.0885e+00		1.0000e+00
			36.45		1.0807e+00		1.0000e+00
			36.5		1.0728e+00		1.0000e+00
			36.55		1.0650e+00		1.0000e+00
			36.6		1.0571e+00		1.0000e+00
			36.65		1.0493e+00		1.0000e+00
			36.7		1.0414e+00		1.0000e+00
			36.75		1.0336e+00		1.0000e+00
			36.8		1.0257e+00		1.0000e+00
			36.85		1.0179e+00		1.0000e+00
			36.9		1.0101e+00		1.0000e+00
			36.95		1.0022e+00		1.0000e+00
			37.0		9.9438e-01		1.0000e+00
			37.05		9.8485e-01		1.0000e+00
			37.1		9.7532e-01		1.0000e+00
			37.15		9.6579e-01		1.0000e+00
			37.2		9.5626e-01		1.0000e+00
			37.25		9.4673e-01		1.0000e+00
			37.3		9.3720e-01		1.0000e+00
			37.35		9.2768e-01		1.0000e+00
			37.4		9.1815e-01		1.0000e+00
			37.45		9.0863e-01		1.0000e+00
			37.5		8.9910e-01		1.0000e+00
			37.55		8.8958e-01		1.0000e+00
			37.6		8.8006e-01		1.0000e+00
			37.65		8.7054e-01		1.0000e+00
			37.7		8.6102e-01		1.0000e+00
			37.75		8.5150e-01		1.0000e+00
			37.8		8.4199e-01		1.0000e+00
			37.85		6.6713e-01		1.0000e+00
			37.9		4.9227e-01		1.0000e+00
			37.95		3.1741e-01		1.0000e+00
			38.0		1.4255e-01		1.0000e+00
			38.05		1.4081e-01		1.0000e+00
			38.1		1.3906e-01		1.0000e+00
			38.15		1.3732e-01		1.0000e+00
			38.2		1.3558e-01		1.0000e+00
			38.25		1.3211e-01		1.0000e+00
			38.3		1.2864e-01		1.0000e+00
			38.35		1.2518e-01		1.0000e+00
			38.4		1.2171e-01		1.0000e+00
			38.45		1.2004e-01		1.0000e+00
			38.5		1.1836e-01		1.0000e+00
			38.55		1.1669e-01		1.0000e+00
			38.6		1.1502e-01		1.0000e+00
			38.65		1.1208e-01		1.0000e+00
			38.7		1.0914e-01		1.0000e+00
			38.75		1.0620e-01		1.0000e+00
			38.8		1.0326e-01		1.0000e+00
			38.85		1.0170e-01		1.0000e+00
			38.9		1.0013e-01		1.0000e+00
			38.95		9.8570e-02		1.0000e+00
			39.0		9.7006e-02		1.0000e+00
			39.05		9.4528e-02		1.0000e+00
			39.1		9.2051e-02		1.0000e+00
			39.15		8.9573e-02		1.0000e+00
			39.2		8.7096e-02		1.0000e+00
			39.25		8.5611e-02		1.0000e+00
			39.3		8.4125e-02		1.0000e+00
			39.35		8.2640e-02		1.0000e+00
			39.4		8.1155e-02		1.0000e+00
			39.45		7.9099e-02		1.0000e+00
			39.5		7.7044e-02		1.0000e+00
			39.55		7.4989e-02		1.0000e+00
			39.6		7.2933e-02		1.0000e+00
			39.65		7.1545e-02		1.0000e+00
