BEGIN_SCAN_DATA
	FORMAT=CC-Export V1.9                  
	FILE_CREATION_DATE=
	LAST_MODIFIED=11-Jan-2023 11:56:47
	BEGIN_SCAN  1
		TASK_NAME=RayStation Phantom Profiles & PDDs
		PROGRAM=RayStation
		COMMENT=RayStation Script Export
		MEAS_DATE=11-Jan-2023 11:56:47
		LINAC=RayStation
		MODALITY=X
		ISOCENTER=1000.00
		INPLANE_AXIS=Y
		CROSSPLANE_AXIS=X
		DEPTH_AXIS=Z
		INPLANE_AXIS_DIR=GUN_TARGET
		CROSSPLANE_AXIS_DIR=LEFT_RIGHT
		DEPTH_AXIS_DIR=UP_DOWN
		ENERGY=6.3
		NOMINAL_DMAX=20.00
		SSD=1000.0
		SCD=1000.00
		WEDGE_ANGLE=0.00
		FIELD_INPLANE=150.0
		FIELD_CROSSPLANE=100.0
		FIELD_TYPE=IRREGULAR
		GANTRY=0.00
		GANTRY_UPRIGHT_POSITION=0
		GANTRY_ROTATION=CW
		COLL_ANGLE=0.00
		REF_FIELD_DEPTH=50.00
		REF_FIELD_DEFINED=ISOCENTER
		FIELD_INPLANE=150.0
		FIELD_CROSSPLANE=100.0
		SCAN_CURVETYPE=INPLANE_PROFILE
		SCAN_DEPTH=20.0
		SCAN_OFFAXIS_INPLANE=0.00
		SCAN_OFFAXIS_CROSSPLANE=0.00
		SCAN_ANGLE=0.00
		SCAN_DIAGONAL=NOT_DIAGONAL
		SCAN_DIRECTION=NEGATIVE
		MEAS_MEDIUM=WATER
		MEAS_UNIT=cGy
		INCLINATION_ANGLE=0.00
		PRESSURE=1013.20
		TEMPERATURE=20.00
		NORM_TEMPERATURE=20.00
		CORRECTION_FACTOR=1.0000;
		BEGIN_DATA
			-5.0		0.0000e+00		1.0000e+00
			-4.95		0.0000e+00		1.0000e+00
			-4.9		0.0000e+00		1.0000e+00
			-4.85		0.0000e+00		1.0000e+00
			-4.8		0.0000e+00		1.0000e+00
			-4.75		0.0000e+00		1.0000e+00
			-4.7		0.0000e+00		1.0000e+00
			-4.65		0.0000e+00		1.0000e+00
			-4.6		0.0000e+00		1.0000e+00
			-4.55		0.0000e+00		1.0000e+00
			-4.5		0.0000e+00		1.0000e+00
			-4.45		0.0000e+00		1.0000e+00
			-4.4		0.0000e+00		1.0000e+00
			-4.35		0.0000e+00		1.0000e+00
			-4.3		0.0000e+00		1.0000e+00
			-4.25		0.0000e+00		1.0000e+00
			-4.2		0.0000e+00		1.0000e+00
			-4.15		0.0000e+00		1.0000e+00
			-4.1		0.0000e+00		1.0000e+00
			-4.05		0.0000e+00		1.0000e+00
			-4.0		0.0000e+00		1.0000e+00
			-3.95		0.0000e+00		1.0000e+00
			-3.9		0.0000e+00		1.0000e+00
			-3.85		0.0000e+00		1.0000e+00
			-3.8		0.0000e+00		1.0000e+00
			-3.75		5.6493e-07		1.0000e+00
			-3.7		1.1299e-06		1.0000e+00
			-3.65		1.6948e-06		1.0000e+00
			-3.6		2.2597e-06		1.0000e+00
			-3.55		4.0250e-04		1.0000e+00
			-3.5		8.0275e-04		1.0000e+00
			-3.45		1.2030e-03		1.0000e+00
			-3.4		1.6032e-03		1.0000e+00
			-3.35		1.7243e-03		1.0000e+00
			-3.3		1.8454e-03		1.0000e+00
			-3.25		1.9665e-03		1.0000e+00
			-3.2		2.0876e-03		1.0000e+00
			-3.15		2.1283e-03		1.0000e+00
			-3.1		2.1690e-03		1.0000e+00
			-3.05		2.2098e-03		1.0000e+00
			-3.0		2.2505e-03		1.0000e+00
			-2.95		2.2945e-03		1.0000e+00
			-2.9		2.3385e-03		1.0000e+00
			-2.85		2.3826e-03		1.0000e+00
			-2.8		2.4266e-03		1.0000e+00
			-2.75		2.4556e-03		1.0000e+00
			-2.7		2.4846e-03		1.0000e+00
			-2.65		2.5135e-03		1.0000e+00
			-2.6		2.5425e-03		1.0000e+00
			-2.55		2.5953e-03		1.0000e+00
			-2.5		2.6481e-03		1.0000e+00
			-2.45		2.7008e-03		1.0000e+00
			-2.4		2.7536e-03		1.0000e+00
			-2.35		2.8018e-03		1.0000e+00
			-2.3		2.8501e-03		1.0000e+00
			-2.25		2.8983e-03		1.0000e+00
			-2.2		2.9465e-03		1.0000e+00
			-2.15		2.9823e-03		1.0000e+00
			-2.1		3.0181e-03		1.0000e+00
			-2.05		3.0539e-03		1.0000e+00
			-2.0		3.0897e-03		1.0000e+00
			-1.95		3.1542e-03		1.0000e+00
			-1.9		3.2187e-03		1.0000e+00
			-1.85		3.2832e-03		1.0000e+00
			-1.8		3.3478e-03		1.0000e+00
			-1.75		3.4011e-03		1.0000e+00
			-1.7		3.4545e-03		1.0000e+00
			-1.65		3.5079e-03		1.0000e+00
			-1.6		3.5612e-03		1.0000e+00
			-1.55		3.6050e-03		1.0000e+00
			-1.5		3.6487e-03		1.0000e+00
			-1.45		3.6925e-03		1.0000e+00
			-1.4		3.7362e-03		1.0000e+00
			-1.35		3.8166e-03		1.0000e+00
			-1.3		3.8969e-03		1.0000e+00
			-1.25		3.9773e-03		1.0000e+00
			-1.2		4.0577e-03		1.0000e+00
			-1.15		4.1157e-03		1.0000e+00
			-1.1		4.1738e-03		1.0000e+00
			-1.05		4.2319e-03		1.0000e+00
			-1.0		4.2900e-03		1.0000e+00
			-0.95		4.3432e-03		1.0000e+00
			-0.9		4.3964e-03		1.0000e+00
			-0.85		4.4496e-03		1.0000e+00
			-0.8		4.5028e-03		1.0000e+00
			-0.75		4.5990e-03		1.0000e+00
			-0.7		4.6951e-03		1.0000e+00
			-0.65		4.7912e-03		1.0000e+00
			-0.6		4.8874e-03		1.0000e+00
			-0.55		4.9510e-03		1.0000e+00
			-0.5		5.0147e-03		1.0000e+00
			-0.45		5.0784e-03		1.0000e+00
			-0.4		5.1420e-03		1.0000e+00
			-0.35		5.2087e-03		1.0000e+00
			-0.3		5.2754e-03		1.0000e+00
			-0.25		5.3420e-03		1.0000e+00
			-0.2		5.4087e-03		1.0000e+00
			-0.15		5.5202e-03		1.0000e+00
			-0.1		5.6317e-03		1.0000e+00
			-0.05		5.7432e-03		1.0000e+00
			-0.0		5.8548e-03		1.0000e+00
			0.05		5.9252e-03		1.0000e+00
			0.1		5.9956e-03		1.0000e+00
			0.15		6.0660e-03		1.0000e+00
			0.2		6.1364e-03		1.0000e+00
			0.25		6.2189e-03		1.0000e+00
			0.3		6.3014e-03		1.0000e+00
			0.35		6.3839e-03		1.0000e+00
			0.4		6.4664e-03		1.0000e+00
			0.45		6.5943e-03		1.0000e+00
			0.5		6.7222e-03		1.0000e+00
			0.55		6.8501e-03		1.0000e+00
			0.6		6.9779e-03		1.0000e+00
			0.65		7.0555e-03		1.0000e+00
			0.7		7.1331e-03		1.0000e+00
			0.75		7.2106e-03		1.0000e+00
			0.8		7.2882e-03		1.0000e+00
			0.85		7.3901e-03		1.0000e+00
			0.9		7.4920e-03		1.0000e+00
			0.95		7.5939e-03		1.0000e+00
			1.0		7.6958e-03		1.0000e+00
			1.05		7.8408e-03		1.0000e+00
			1.1		7.9858e-03		1.0000e+00
			1.15		8.1308e-03		1.0000e+00
			1.2		8.2757e-03		1.0000e+00
			1.25		8.3599e-03		1.0000e+00
			1.3		8.4440e-03		1.0000e+00
			1.35		8.5281e-03		1.0000e+00
			1.4		8.6122e-03		1.0000e+00
			1.45		8.7423e-03		1.0000e+00
			1.5		8.8723e-03		1.0000e+00
			1.55		9.0024e-03		1.0000e+00
			1.6		9.1324e-03		1.0000e+00
			1.65		9.2869e-03		1.0000e+00
			1.7		9.4413e-03		1.0000e+00
			1.75		9.5958e-03		1.0000e+00
			1.8		9.7502e-03		1.0000e+00
			1.85		9.8479e-03		1.0000e+00
			1.9		9.9456e-03		1.0000e+00
			1.95		1.0043e-02		1.0000e+00
			2.0		1.0141e-02		1.0000e+00
			2.05		1.0301e-02		1.0000e+00
			2.1		1.0462e-02		1.0000e+00
			2.15		1.0623e-02		1.0000e+00
			2.2		1.0783e-02		1.0000e+00
			2.25		1.0947e-02		1.0000e+00
			2.3		1.1112e-02		1.0000e+00
			2.35		1.1276e-02		1.0000e+00
			2.4		1.1440e-02		1.0000e+00
			2.45		1.1551e-02		1.0000e+00
			2.5		1.1662e-02		1.0000e+00
			2.55		1.1773e-02		1.0000e+00
			2.6		1.1883e-02		1.0000e+00
			2.65		1.2081e-02		1.0000e+00
			2.7		1.2279e-02		1.0000e+00
			2.75		1.2477e-02		1.0000e+00
			2.8		1.2675e-02		1.0000e+00
			2.85		1.2850e-02		1.0000e+00
			2.9		1.3025e-02		1.0000e+00
			2.95		1.3200e-02		1.0000e+00
			3.0		1.3376e-02		1.0000e+00
			3.05		1.3500e-02		1.0000e+00
			3.1		1.3624e-02		1.0000e+00
			3.15		1.3749e-02		1.0000e+00
			3.2		1.3873e-02		1.0000e+00
			3.25		1.4113e-02		1.0000e+00
			3.3		1.4354e-02		1.0000e+00
			3.35		1.4595e-02		1.0000e+00
			3.4		1.4835e-02		1.0000e+00
			3.45		1.5013e-02		1.0000e+00
			3.5		1.5192e-02		1.0000e+00
			3.55		1.5370e-02		1.0000e+00
			3.6		1.5548e-02		1.0000e+00
			3.65		1.5698e-02		1.0000e+00
			3.7		1.5848e-02		1.0000e+00
			3.75		1.5997e-02		1.0000e+00
			3.8		1.6147e-02		1.0000e+00
			3.85		1.6426e-02		1.0000e+00
			3.9		1.6705e-02		1.0000e+00
			3.95		1.6984e-02		1.0000e+00
			4.0		1.7263e-02		1.0000e+00
			4.05		1.7449e-02		1.0000e+00
			4.1		1.7635e-02		1.0000e+00
			4.15		1.7822e-02		1.0000e+00
			4.2		1.8008e-02		1.0000e+00
			4.25		1.8184e-02		1.0000e+00
			4.3		1.8360e-02		1.0000e+00
			4.35		1.8536e-02		1.0000e+00
			4.4		1.8712e-02		1.0000e+00
			4.45		1.9027e-02		1.0000e+00
			4.5		1.9343e-02		1.0000e+00
			4.55		1.9658e-02		1.0000e+00
			4.6		1.9973e-02		1.0000e+00
			4.65		2.0156e-02		1.0000e+00
			4.7		2.0338e-02		1.0000e+00
			4.75		2.0521e-02		1.0000e+00
			4.8		2.0703e-02		1.0000e+00
			4.85		2.0885e-02		1.0000e+00
			4.9		2.1066e-02		1.0000e+00
			4.95		2.1248e-02		1.0000e+00
			5.0		2.1429e-02		1.0000e+00
			5.05		2.1766e-02		1.0000e+00
			5.1		2.2102e-02		1.0000e+00
			5.15		2.2438e-02		1.0000e+00
			5.2		2.2775e-02		1.0000e+00
			5.25		2.2955e-02		1.0000e+00
			5.3		2.3136e-02		1.0000e+00
			5.35		2.3316e-02		1.0000e+00
			5.4		2.3497e-02		1.0000e+00
			5.45		2.3723e-02		1.0000e+00
			5.5		2.3948e-02		1.0000e+00
			5.55		2.4174e-02		1.0000e+00
			5.6		2.4400e-02		1.0000e+00
			5.65		2.4767e-02		1.0000e+00
			5.7		2.5135e-02		1.0000e+00
			5.75		2.5502e-02		1.0000e+00
			5.8		2.5869e-02		1.0000e+00
			5.85		2.6074e-02		1.0000e+00
			5.9		2.6278e-02		1.0000e+00
			5.95		2.6483e-02		1.0000e+00
			6.0		2.6687e-02		1.0000e+00
			6.05		2.6974e-02		1.0000e+00
			6.1		2.7261e-02		1.0000e+00
			6.15		2.7549e-02		1.0000e+00
			6.2		2.7836e-02		1.0000e+00
			6.25		2.8220e-02		1.0000e+00
			6.3		2.8604e-02		1.0000e+00
			6.35		2.8989e-02		1.0000e+00
			6.4		2.9373e-02		1.0000e+00
			6.45		2.9599e-02		1.0000e+00
			6.5		2.9826e-02		1.0000e+00
			6.55		3.0052e-02		1.0000e+00
			6.6		3.0278e-02		1.0000e+00
			6.65		3.0615e-02		1.0000e+00
			6.7		3.0953e-02		1.0000e+00
			6.75		3.1290e-02		1.0000e+00
			6.8		3.1627e-02		1.0000e+00
			6.85		3.2025e-02		1.0000e+00
			6.9		3.2423e-02		1.0000e+00
			6.95		3.2821e-02		1.0000e+00
			7.0		3.3220e-02		1.0000e+00
			7.05		3.3459e-02		1.0000e+00
			7.1		3.3698e-02		1.0000e+00
			7.15		3.3938e-02		1.0000e+00
			7.2		3.4177e-02		1.0000e+00
			7.25		3.4590e-02		1.0000e+00
			7.3		3.5003e-02		1.0000e+00
			7.35		3.5415e-02		1.0000e+00
			7.4		3.5828e-02		1.0000e+00
			7.45		3.6221e-02		1.0000e+00
			7.5		3.6614e-02		1.0000e+00
			7.55		3.7007e-02		1.0000e+00
			7.6		3.7400e-02		1.0000e+00
			7.65		3.7659e-02		1.0000e+00
			7.7		3.7917e-02		1.0000e+00
			7.75		3.8176e-02		1.0000e+00
			7.8		3.8434e-02		1.0000e+00
			7.85		3.8916e-02		1.0000e+00
			7.9		3.9397e-02		1.0000e+00
			7.95		3.9879e-02		1.0000e+00
			8.0		4.0360e-02		1.0000e+00
			8.05		4.0751e-02		1.0000e+00
			8.1		4.1142e-02		1.0000e+00
			8.15		4.1533e-02		1.0000e+00
			8.2		4.1924e-02		1.0000e+00
			8.25		4.2209e-02		1.0000e+00
			8.3		4.2495e-02		1.0000e+00
			8.35		4.2780e-02		1.0000e+00
			8.4		4.3065e-02		1.0000e+00
			8.45		4.3611e-02		1.0000e+00
			8.5		4.4157e-02		1.0000e+00
			8.55		4.4702e-02		1.0000e+00
			8.6		4.5248e-02		1.0000e+00
			8.65		4.5634e-02		1.0000e+00
			8.7		4.6021e-02		1.0000e+00
			8.75		4.6407e-02		1.0000e+00
			8.8		4.6794e-02		1.0000e+00
			8.85		4.7102e-02		1.0000e+00
			8.9		4.7410e-02		1.0000e+00
			8.95		4.7719e-02		1.0000e+00
			9.0		4.8027e-02		1.0000e+00
			9.05		7.4838e-02		1.0000e+00
			9.1		1.0165e-01		1.0000e+00
			9.15		1.2846e-01		1.0000e+00
			9.2		1.5527e-01		1.0000e+00
			9.25		1.8211e-01		1.0000e+00
			9.3		2.0895e-01		1.0000e+00
			9.35		2.3580e-01		1.0000e+00
			9.4		2.6264e-01		1.0000e+00
			9.45		2.8949e-01		1.0000e+00
			9.5		3.1634e-01		1.0000e+00
			9.55		3.4318e-01		1.0000e+00
			9.6		3.7003e-01		1.0000e+00
			9.65		3.9692e-01		1.0000e+00
			9.7		4.2380e-01		1.0000e+00
			9.75		4.5068e-01		1.0000e+00
			9.8		4.7756e-01		1.0000e+00
			9.85		4.8111e-01		1.0000e+00
			9.9		4.8467e-01		1.0000e+00
			9.95		4.8822e-01		1.0000e+00
			10.0		4.9177e-01		1.0000e+00
			10.05		4.9533e-01		1.0000e+00
			10.1		4.9889e-01		1.0000e+00
			10.15		5.0245e-01		1.0000e+00
			10.2		5.0601e-01		1.0000e+00
			10.25		5.0957e-01		1.0000e+00
			10.3		5.1313e-01		1.0000e+00
			10.35		5.1669e-01		1.0000e+00
			10.4		5.2025e-01		1.0000e+00
			10.45		5.2381e-01		1.0000e+00
			10.5		5.2737e-01		1.0000e+00
			10.55		5.3093e-01		1.0000e+00
			10.6		5.3449e-01		1.0000e+00
			10.65		5.3885e-01		1.0000e+00
			10.7		5.4321e-01		1.0000e+00
			10.75		5.4757e-01		1.0000e+00
			10.8		5.5193e-01		1.0000e+00
			10.85		5.5634e-01		1.0000e+00
			10.9		5.6075e-01		1.0000e+00
			10.95		5.6517e-01		1.0000e+00
			11.0		5.6958e-01		1.0000e+00
			11.05		5.7392e-01		1.0000e+00
			11.1		5.7826e-01		1.0000e+00
			11.15		5.8260e-01		1.0000e+00
			11.2		5.8694e-01		1.0000e+00
			11.25		5.9136e-01		1.0000e+00
			11.3		5.9579e-01		1.0000e+00
			11.35		6.0021e-01		1.0000e+00
			11.4		6.0464e-01		1.0000e+00
			11.45		6.1005e-01		1.0000e+00
			11.5		6.1546e-01		1.0000e+00
			11.55		6.2087e-01		1.0000e+00
			11.6		6.2628e-01		1.0000e+00
			11.65		6.3161e-01		1.0000e+00
			11.7		6.3693e-01		1.0000e+00
			11.75		6.4225e-01		1.0000e+00
			11.8		6.4757e-01		1.0000e+00
			11.85		6.5301e-01		1.0000e+00
			11.9		6.5844e-01		1.0000e+00
			11.95		6.6387e-01		1.0000e+00
			12.0		6.6931e-01		1.0000e+00
			12.05		6.7476e-01		1.0000e+00
			12.1		6.8022e-01		1.0000e+00
			12.15		6.8567e-01		1.0000e+00
			12.2		6.9113e-01		1.0000e+00
			12.25		6.9757e-01		1.0000e+00
			12.3		7.0400e-01		1.0000e+00
			12.35		7.1044e-01		1.0000e+00
			12.4		7.1688e-01		1.0000e+00
			12.45		7.2347e-01		1.0000e+00
			12.5		7.3006e-01		1.0000e+00
			12.55		7.3666e-01		1.0000e+00
			12.6		7.4325e-01		1.0000e+00
			12.65		7.4990e-01		1.0000e+00
			12.7		7.5655e-01		1.0000e+00
			12.75		7.6320e-01		1.0000e+00
			12.8		7.6985e-01		1.0000e+00
			12.85		7.7629e-01		1.0000e+00
			12.9		7.8273e-01		1.0000e+00
			12.95		7.8916e-01		1.0000e+00
			13.0		7.9560e-01		1.0000e+00
			13.05		8.0430e-01		1.0000e+00
			13.1		8.1300e-01		1.0000e+00
			13.15		8.2170e-01		1.0000e+00
			13.2		8.3040e-01		1.0000e+00
			13.25		8.3915e-01		1.0000e+00
			13.3		8.4790e-01		1.0000e+00
			13.35		8.5665e-01		1.0000e+00
			13.4		8.6539e-01		1.0000e+00
			13.45		8.7394e-01		1.0000e+00
			13.5		8.8249e-01		1.0000e+00
			13.55		8.9104e-01		1.0000e+00
			13.6		8.9959e-01		1.0000e+00
			13.65		9.0836e-01		1.0000e+00
			13.7		9.1713e-01		1.0000e+00
			13.75		9.2590e-01		1.0000e+00
			13.8		9.3467e-01		1.0000e+00
			13.85		9.6117e-01		1.0000e+00
			13.9		9.8768e-01		1.0000e+00
			13.95		1.0142e+00		1.0000e+00
			14.0		1.0407e+00		1.0000e+00
			14.05		1.0669e+00		1.0000e+00
			14.1		1.0931e+00		1.0000e+00
			14.15		1.1194e+00		1.0000e+00
			14.2		1.1456e+00		1.0000e+00
			14.25		1.1722e+00		1.0000e+00
			14.3		1.1988e+00		1.0000e+00
			14.35		1.2253e+00		1.0000e+00
			14.4		1.2519e+00		1.0000e+00
			14.45		1.2784e+00		1.0000e+00
			14.5		1.3048e+00		1.0000e+00
			14.55		1.3313e+00		1.0000e+00
			14.6		1.3578e+00		1.0000e+00
			14.65		1.3822e+00		1.0000e+00
			14.7		1.4067e+00		1.0000e+00
			14.75		1.4312e+00		1.0000e+00
			14.8		1.4557e+00		1.0000e+00
			14.85		1.4804e+00		1.0000e+00
			14.9		1.5051e+00		1.0000e+00
			14.95		1.5298e+00		1.0000e+00
			15.0		1.5545e+00		1.0000e+00
			15.05		1.5790e+00		1.0000e+00
			15.1		1.6035e+00		1.0000e+00
			15.15		1.6280e+00		1.0000e+00
			15.2		1.6525e+00		1.0000e+00
			15.25		1.6772e+00		1.0000e+00
			15.3		1.7019e+00		1.0000e+00
			15.35		1.7266e+00		1.0000e+00
			15.4		1.7513e+00		1.0000e+00
			15.45		1.7840e+00		1.0000e+00
			15.5		1.8167e+00		1.0000e+00
			15.55		1.8494e+00		1.0000e+00
			15.6		1.8821e+00		1.0000e+00
			15.65		1.9144e+00		1.0000e+00
			15.7		1.9467e+00		1.0000e+00
			15.75		1.9790e+00		1.0000e+00
			15.8		2.0113e+00		1.0000e+00
			15.85		2.0441e+00		1.0000e+00
			15.9		2.0769e+00		1.0000e+00
			15.95		2.1097e+00		1.0000e+00
			16.0		2.1425e+00		1.0000e+00
			16.05		2.1754e+00		1.0000e+00
			16.1		2.2083e+00		1.0000e+00
			16.15		2.2412e+00		1.0000e+00
			16.2		2.2741e+00		1.0000e+00
			16.25		2.3103e+00		1.0000e+00
			16.3		2.3465e+00		1.0000e+00
			16.35		2.3827e+00		1.0000e+00
			16.4		2.4188e+00		1.0000e+00
			16.45		2.4555e+00		1.0000e+00
			16.5		2.4921e+00		1.0000e+00
			16.55		2.5288e+00		1.0000e+00
			16.6		2.5655e+00		1.0000e+00
			16.65		2.6022e+00		1.0000e+00
			16.7		2.6390e+00		1.0000e+00
			16.75		2.6757e+00		1.0000e+00
			16.8		2.7125e+00		1.0000e+00
			16.85		2.7486e+00		1.0000e+00
			16.9		2.7846e+00		1.0000e+00
			16.95		2.8207e+00		1.0000e+00
			17.0		2.8568e+00		1.0000e+00
			17.05		2.9029e+00		1.0000e+00
			17.1		2.9490e+00		1.0000e+00
			17.15		2.9951e+00		1.0000e+00
			17.2		3.0412e+00		1.0000e+00
			17.25		3.0871e+00		1.0000e+00
			17.3		3.1329e+00		1.0000e+00
			17.35		3.1788e+00		1.0000e+00
			17.4		3.2246e+00		1.0000e+00
			17.45		3.2700e+00		1.0000e+00
			17.5		3.3153e+00		1.0000e+00
			17.55		3.3606e+00		1.0000e+00
			17.6		3.4059e+00		1.0000e+00
			17.65		3.4518e+00		1.0000e+00
			17.7		3.4978e+00		1.0000e+00
			17.75		3.5437e+00		1.0000e+00
			17.8		3.5897e+00		1.0000e+00
			17.85		3.6468e+00		1.0000e+00
			17.9		3.7038e+00		1.0000e+00
			17.95		3.7609e+00		1.0000e+00
			18.0		3.8180e+00		1.0000e+00
			18.05		3.8742e+00		1.0000e+00
			18.1		3.9303e+00		1.0000e+00
			18.15		3.9865e+00		1.0000e+00
			18.2		4.0426e+00		1.0000e+00
			18.25		4.0996e+00		1.0000e+00
			18.3		4.1566e+00		1.0000e+00
			18.35		4.2136e+00		1.0000e+00
			18.4		4.2706e+00		1.0000e+00
			18.45		4.3276e+00		1.0000e+00
			18.5		4.3846e+00		1.0000e+00
			18.55		4.4416e+00		1.0000e+00
			18.6		4.4986e+00		1.0000e+00
			18.65		4.6320e+00		1.0000e+00
			18.7		4.7654e+00		1.0000e+00
			18.75		4.8987e+00		1.0000e+00
			18.8		5.0321e+00		1.0000e+00
			18.85		5.1669e+00		1.0000e+00
			18.9		5.3016e+00		1.0000e+00
			18.95		5.4364e+00		1.0000e+00
			19.0		5.5711e+00		1.0000e+00
			19.05		5.7087e+00		1.0000e+00
			19.1		5.8462e+00		1.0000e+00
			19.15		5.9838e+00		1.0000e+00
			19.2		6.1213e+00		1.0000e+00
			19.25		6.2597e+00		1.0000e+00
			19.3		6.3980e+00		1.0000e+00
			19.35		6.5364e+00		1.0000e+00
			19.4		6.6747e+00		1.0000e+00
			19.45		7.2571e+00		1.0000e+00
			19.5		7.8394e+00		1.0000e+00
			19.55		8.4218e+00		1.0000e+00
			19.6		9.0042e+00		1.0000e+00
			19.65		1.1311e+01		1.0000e+00
			19.7		1.3619e+01		1.0000e+00
			19.75		1.5926e+01		1.0000e+00
			19.8		1.8233e+01		1.0000e+00
			19.85		2.6881e+01		1.0000e+00
			19.9		3.5529e+01		1.0000e+00
			19.95		4.4177e+01		1.0000e+00
			20.0		5.2824e+01		1.0000e+00
			20.05		5.7109e+01		1.0000e+00
			20.1		6.1393e+01		1.0000e+00
			20.15		6.5678e+01		1.0000e+00
			20.2		6.9962e+01		1.0000e+00
			20.25		7.1042e+01		1.0000e+00
			20.3		7.2121e+01		1.0000e+00
			20.35		7.3201e+01		1.0000e+00
			20.4		7.4281e+01		1.0000e+00
			20.45		7.4656e+01		1.0000e+00
			20.5		7.5032e+01		1.0000e+00
			20.55		7.5408e+01		1.0000e+00
			20.6		7.5784e+01		1.0000e+00
			20.65		7.5950e+01		1.0000e+00
			20.7		7.6116e+01		1.0000e+00
			20.75		7.6282e+01		1.0000e+00
			20.8		7.6448e+01		1.0000e+00
			20.85		7.6534e+01		1.0000e+00
			20.9		7.6620e+01		1.0000e+00
			20.95		7.6706e+01		1.0000e+00
			21.0		7.6792e+01		1.0000e+00
			21.05		7.6830e+01		1.0000e+00
			21.1		7.6867e+01		1.0000e+00
			21.15		7.6905e+01		1.0000e+00
			21.2		7.6942e+01		1.0000e+00
			21.25		7.6974e+01		1.0000e+00
			21.3		7.7005e+01		1.0000e+00
			21.35		7.7036e+01		1.0000e+00
			21.4		7.7068e+01		1.0000e+00
			21.45		7.7088e+01		1.0000e+00
			21.5		7.7108e+01		1.0000e+00
			21.55		7.7129e+01		1.0000e+00
			21.6		7.7149e+01		1.0000e+00
			21.65		7.7166e+01		1.0000e+00
			21.7		7.7182e+01		1.0000e+00
			21.75		7.7198e+01		1.0000e+00
			21.8		7.7215e+01		1.0000e+00
			21.85		7.7225e+01		1.0000e+00
			21.9		7.7236e+01		1.0000e+00
			21.95		7.7247e+01		1.0000e+00
			22.0		7.7257e+01		1.0000e+00
			22.05		7.7249e+01		1.0000e+00
			22.1		7.7240e+01		1.0000e+00
			22.15		7.7231e+01		1.0000e+00
			22.2		7.7223e+01		1.0000e+00
			22.25		7.7230e+01		1.0000e+00
			22.3		7.7237e+01		1.0000e+00
			22.35		7.7245e+01		1.0000e+00
			22.4		7.7252e+01		1.0000e+00
			22.45		7.7245e+01		1.0000e+00
			22.5		7.7238e+01		1.0000e+00
			22.55		7.7231e+01		1.0000e+00
			22.6		7.7224e+01		1.0000e+00
			22.65		7.7222e+01		1.0000e+00
			22.7		7.7221e+01		1.0000e+00
			22.75		7.7219e+01		1.0000e+00
			22.8		7.7217e+01		1.0000e+00
			22.85		7.7218e+01		1.0000e+00
			22.9		7.7219e+01		1.0000e+00
			22.95		7.7221e+01		1.0000e+00
			23.0		7.7222e+01		1.0000e+00
			23.05		7.7222e+01		1.0000e+00
			23.1		7.7221e+01		1.0000e+00
			23.15		7.7221e+01		1.0000e+00
			23.2		7.7221e+01		1.0000e+00
			23.25		7.7201e+01		1.0000e+00
			23.3		7.7181e+01		1.0000e+00
			23.35		7.7161e+01		1.0000e+00
			23.4		7.7141e+01		1.0000e+00
			23.45		7.7137e+01		1.0000e+00
			23.5		7.7132e+01		1.0000e+00
			23.55		7.7128e+01		1.0000e+00
			23.6		7.7123e+01		1.0000e+00
			23.65		7.7104e+01		1.0000e+00
			23.7		7.7084e+01		1.0000e+00
			23.75		7.7064e+01		1.0000e+00
			23.8		7.7044e+01		1.0000e+00
			23.85		7.7036e+01		1.0000e+00
			23.9		7.7027e+01		1.0000e+00
			23.95		7.7019e+01		1.0000e+00
			24.0		7.7010e+01		1.0000e+00
			24.05		7.7004e+01		1.0000e+00
			24.1		7.6999e+01		1.0000e+00
			24.15		7.6993e+01		1.0000e+00
			24.2		7.6987e+01		1.0000e+00
			24.25		7.6963e+01		1.0000e+00
			24.3		7.6938e+01		1.0000e+00
			24.35		7.6914e+01		1.0000e+00
			24.4		7.6890e+01		1.0000e+00
			24.45		7.6881e+01		1.0000e+00
			24.5		7.6872e+01		1.0000e+00
			24.55		7.6863e+01		1.0000e+00
			24.6		7.6853e+01		1.0000e+00
			24.65		7.6830e+01		1.0000e+00
			24.7		7.6807e+01		1.0000e+00
			24.75		7.6783e+01		1.0000e+00
			24.8		7.6760e+01		1.0000e+00
			24.85		7.6753e+01		1.0000e+00
			24.9		7.6745e+01		1.0000e+00
			24.95		7.6738e+01		1.0000e+00
			25.0		7.6730e+01		1.0000e+00
			25.05		7.6738e+01		1.0000e+00
			25.1		7.6745e+01		1.0000e+00
			25.15		7.6753e+01		1.0000e+00
			25.2		7.6760e+01		1.0000e+00
			25.25		7.6784e+01		1.0000e+00
			25.3		7.6807e+01		1.0000e+00
			25.35		7.6831e+01		1.0000e+00
			25.4		7.6854e+01		1.0000e+00
			25.45		7.6863e+01		1.0000e+00
			25.5		7.6872e+01		1.0000e+00
			25.55		7.6881e+01		1.0000e+00
			25.6		7.6890e+01		1.0000e+00
			25.65		7.6915e+01		1.0000e+00
			25.7		7.6939e+01		1.0000e+00
			25.75		7.6964e+01		1.0000e+00
			25.8		7.6988e+01		1.0000e+00
			25.85		7.6994e+01		1.0000e+00
			25.9		7.7000e+01		1.0000e+00
			25.95		7.7005e+01		1.0000e+00
			26.0		7.7011e+01		1.0000e+00
			26.05		7.7019e+01		1.0000e+00
			26.1		7.7027e+01		1.0000e+00
			26.15		7.7036e+01		1.0000e+00
			26.2		7.7044e+01		1.0000e+00
			26.25		7.7064e+01		1.0000e+00
			26.3		7.7084e+01		1.0000e+00
			26.35		7.7103e+01		1.0000e+00
			26.4		7.7123e+01		1.0000e+00
			26.45		7.7128e+01		1.0000e+00
			26.5		7.7133e+01		1.0000e+00
			26.55		7.7137e+01		1.0000e+00
			26.6		7.7142e+01		1.0000e+00
			26.65		7.7163e+01		1.0000e+00
			26.7		7.7183e+01		1.0000e+00
			26.75		7.7204e+01		1.0000e+00
			26.8		7.7225e+01		1.0000e+00
			26.85		7.7223e+01		1.0000e+00
			26.9		7.7221e+01		1.0000e+00
			26.95		7.7219e+01		1.0000e+00
			27.0		7.7217e+01		1.0000e+00
			27.05		7.7216e+01		1.0000e+00
			27.1		7.7216e+01		1.0000e+00
			27.15		7.7216e+01		1.0000e+00
			27.2		7.7216e+01		1.0000e+00
			27.25		7.7217e+01		1.0000e+00
			27.3		7.7218e+01		1.0000e+00
			27.35		7.7219e+01		1.0000e+00
			27.4		7.7220e+01		1.0000e+00
			27.45		7.7229e+01		1.0000e+00
			27.5		7.7239e+01		1.0000e+00
			27.55		7.7248e+01		1.0000e+00
			27.6		7.7258e+01		1.0000e+00
			27.65		7.7251e+01		1.0000e+00
			27.7		7.7243e+01		1.0000e+00
			27.75		7.7236e+01		1.0000e+00
			27.8		7.7229e+01		1.0000e+00
			27.85		7.7219e+01		1.0000e+00
			27.9		7.7210e+01		1.0000e+00
			27.95		7.7201e+01		1.0000e+00
			28.0		7.7191e+01		1.0000e+00
			28.05		7.7197e+01		1.0000e+00
			28.1		7.7203e+01		1.0000e+00
			28.15		7.7209e+01		1.0000e+00
			28.2		7.7215e+01		1.0000e+00
			28.25		7.7199e+01		1.0000e+00
			28.3		7.7182e+01		1.0000e+00
			28.35		7.7165e+01		1.0000e+00
			28.4		7.7148e+01		1.0000e+00
			28.45		7.7132e+01		1.0000e+00
			28.5		7.7116e+01		1.0000e+00
			28.55		7.7099e+01		1.0000e+00
			28.6		7.7083e+01		1.0000e+00
			28.65		7.7047e+01		1.0000e+00
			28.7		7.7012e+01		1.0000e+00
			28.75		7.6976e+01		1.0000e+00
			28.8		7.6940e+01		1.0000e+00
			28.85		7.6902e+01		1.0000e+00
			28.9		7.6864e+01		1.0000e+00
			28.95		7.6827e+01		1.0000e+00
			29.0		7.6789e+01		1.0000e+00
			29.05		7.6700e+01		1.0000e+00
			29.1		7.6612e+01		1.0000e+00
			29.15		7.6524e+01		1.0000e+00
			29.2		7.6436e+01		1.0000e+00
			29.25		7.6277e+01		1.0000e+00
			29.3		7.6118e+01		1.0000e+00
			29.35		7.5959e+01		1.0000e+00
			29.4		7.5800e+01		1.0000e+00
			29.45		7.5421e+01		1.0000e+00
			29.5		7.5043e+01		1.0000e+00
			29.55		7.4664e+01		1.0000e+00
			29.6		7.4285e+01		1.0000e+00
			29.65		7.3202e+01		1.0000e+00
			29.7		7.2119e+01		1.0000e+00
			29.75		7.1036e+01		1.0000e+00
			29.8		6.9953e+01		1.0000e+00
			29.85		6.5671e+01		1.0000e+00
			29.9		6.1388e+01		1.0000e+00
			29.95		5.7106e+01		1.0000e+00
			30.0		5.2823e+01		1.0000e+00
			30.05		4.4179e+01		1.0000e+00
			30.1		3.5535e+01		1.0000e+00
			30.15		2.6890e+01		1.0000e+00
			30.2		1.8246e+01		1.0000e+00
			30.25		1.5937e+01		1.0000e+00
			30.3		1.3627e+01		1.0000e+00
			30.35		1.1318e+01		1.0000e+00
			30.4		9.0084e+00		1.0000e+00
			30.45		8.4169e+00		1.0000e+00
			30.5		7.8254e+00		1.0000e+00
			30.55		7.2339e+00		1.0000e+00
			30.6		6.6424e+00		1.0000e+00
			30.65		6.5089e+00		1.0000e+00
			30.7		6.3754e+00		1.0000e+00
			30.75		6.2419e+00		1.0000e+00
			30.8		6.1084e+00		1.0000e+00
			30.85		5.9740e+00		1.0000e+00
			30.9		5.8396e+00		1.0000e+00
			30.95		5.7052e+00		1.0000e+00
			31.0		5.5708e+00		1.0000e+00
			31.05		5.4364e+00		1.0000e+00
			31.1		5.3020e+00		1.0000e+00
			31.15		5.1677e+00		1.0000e+00
			31.2		5.0333e+00		1.0000e+00
			31.25		4.8998e+00		1.0000e+00
			31.3		4.7663e+00		1.0000e+00
			31.35		4.6329e+00		1.0000e+00
			31.4		4.4994e+00		1.0000e+00
			31.45		4.4422e+00		1.0000e+00
			31.5		4.3849e+00		1.0000e+00
			31.55		4.3277e+00		1.0000e+00
			31.6		4.2705e+00		1.0000e+00
			31.65		4.2136e+00		1.0000e+00
			31.7		4.1566e+00		1.0000e+00
			31.75		4.0997e+00		1.0000e+00
			31.8		4.0428e+00		1.0000e+00
			31.85		3.9865e+00		1.0000e+00
			31.9		3.9302e+00		1.0000e+00
			31.95		3.8740e+00		1.0000e+00
			32.0		3.8177e+00		1.0000e+00
			32.05		3.7609e+00		1.0000e+00
			32.1		3.7041e+00		1.0000e+00
			32.15		3.6473e+00		1.0000e+00
			32.2		3.5905e+00		1.0000e+00
			32.25		3.5442e+00		1.0000e+00
			32.3		3.4978e+00		1.0000e+00
			32.35		3.4515e+00		1.0000e+00
			32.4		3.4052e+00		1.0000e+00
			32.45		3.3600e+00		1.0000e+00
			32.5		3.3148e+00		1.0000e+00
			32.55		3.2696e+00		1.0000e+00
			32.6		3.2244e+00		1.0000e+00
			32.65		3.1784e+00		1.0000e+00
			32.7		3.1325e+00		1.0000e+00
			32.75		3.0865e+00		1.0000e+00
			32.8		3.0406e+00		1.0000e+00
			32.85		2.9947e+00		1.0000e+00
			32.9		2.9487e+00		1.0000e+00
			32.95		2.9028e+00		1.0000e+00
			33.0		2.8569e+00		1.0000e+00
			33.05		2.8208e+00		1.0000e+00
			33.1		2.7847e+00		1.0000e+00
			33.15		2.7486e+00		1.0000e+00
			33.2		2.7124e+00		1.0000e+00
			33.25		2.6756e+00		1.0000e+00
			33.3		2.6388e+00		1.0000e+00
			33.35		2.6019e+00		1.0000e+00
			33.4		2.5651e+00		1.0000e+00
			33.45		2.5284e+00		1.0000e+00
			33.5		2.4918e+00		1.0000e+00
			33.55		2.4551e+00		1.0000e+00
			33.6		2.4185e+00		1.0000e+00
			33.65		2.3823e+00		1.0000e+00
			33.7		2.3462e+00		1.0000e+00
			33.75		2.3101e+00		1.0000e+00
			33.8		2.2740e+00		1.0000e+00
			33.85		2.2412e+00		1.0000e+00
			33.9		2.2084e+00		1.0000e+00
			33.95		2.1756e+00		1.0000e+00
			34.0		2.1428e+00		1.0000e+00
			34.05		2.1099e+00		1.0000e+00
			34.1		2.0769e+00		1.0000e+00
			34.15		2.0440e+00		1.0000e+00
			34.2		2.0110e+00		1.0000e+00
			34.25		1.9787e+00		1.0000e+00
			34.3		1.9464e+00		1.0000e+00
			34.35		1.9142e+00		1.0000e+00
			34.4		1.8819e+00		1.0000e+00
			34.45		1.8492e+00		1.0000e+00
			34.5		1.8164e+00		1.0000e+00
			34.55		1.7837e+00		1.0000e+00
			34.6		1.7510e+00		1.0000e+00
			34.65		1.7264e+00		1.0000e+00
			34.7		1.7018e+00		1.0000e+00
			34.75		1.6772e+00		1.0000e+00
			34.8		1.6527e+00		1.0000e+00
			34.85		1.6281e+00		1.0000e+00
			34.9		1.6036e+00		1.0000e+00
			34.95		1.5790e+00		1.0000e+00
			35.0		1.5545e+00		1.0000e+00
			35.05		1.5298e+00		1.0000e+00
			35.1		1.5051e+00		1.0000e+00
			35.15		1.4803e+00		1.0000e+00
			35.2		1.4556e+00		1.0000e+00
			35.25		1.4311e+00		1.0000e+00
			35.3		1.4066e+00		1.0000e+00
			35.35		1.3821e+00		1.0000e+00
			35.4		1.3576e+00		1.0000e+00
			35.45		1.3312e+00		1.0000e+00
			35.5		1.3048e+00		1.0000e+00
			35.55		1.2784e+00		1.0000e+00
			35.6		1.2519e+00		1.0000e+00
			35.65		1.2254e+00		1.0000e+00
			35.7		1.1989e+00		1.0000e+00
			35.75		1.1723e+00		1.0000e+00
			35.8		1.1458e+00		1.0000e+00
			35.85		1.1195e+00		1.0000e+00
			35.9		1.0932e+00		1.0000e+00
			35.95		1.0669e+00		1.0000e+00
			36.0		1.0407e+00		1.0000e+00
			36.05		1.0142e+00		1.0000e+00
			36.1		9.8765e-01		1.0000e+00
			36.15		9.6115e-01		1.0000e+00
			36.2		9.3466e-01		1.0000e+00
			36.25		9.2589e-01		1.0000e+00
			36.3		9.1711e-01		1.0000e+00
			36.35		9.0834e-01		1.0000e+00
			36.4		8.9957e-01		1.0000e+00
			36.45		8.9107e-01		1.0000e+00
			36.5		8.8257e-01		1.0000e+00
			36.55		8.7406e-01		1.0000e+00
			36.6		8.6556e-01		1.0000e+00
			36.65		8.5678e-01		1.0000e+00
			36.7		8.4800e-01		1.0000e+00
			36.75		8.3921e-01		1.0000e+00
			36.8		8.3043e-01		1.0000e+00
			36.85		8.2172e-01		1.0000e+00
			36.9		8.1302e-01		1.0000e+00
			36.95		8.0431e-01		1.0000e+00
			37.0		7.9560e-01		1.0000e+00
			37.05		7.8915e-01		1.0000e+00
			37.1		7.8269e-01		1.0000e+00
			37.15		7.7624e-01		1.0000e+00
			37.2		7.6979e-01		1.0000e+00
			37.25		7.6316e-01		1.0000e+00
			37.3		7.5654e-01		1.0000e+00
			37.35		7.4991e-01		1.0000e+00
			37.4		7.4328e-01		1.0000e+00
			37.45		7.3669e-01		1.0000e+00
			37.5		7.3010e-01		1.0000e+00
			37.55		7.2351e-01		1.0000e+00
			37.6		7.1692e-01		1.0000e+00
			37.65		7.1047e-01		1.0000e+00
			37.7		7.0401e-01		1.0000e+00
			37.75		6.9756e-01		1.0000e+00
			37.8		6.9110e-01		1.0000e+00
			37.85		6.8564e-01		1.0000e+00
			37.9		6.8019e-01		1.0000e+00
			37.95		6.7473e-01		1.0000e+00
			38.0		6.6927e-01		1.0000e+00
			38.05		6.6384e-01		1.0000e+00
			38.1		6.5841e-01		1.0000e+00
			38.15		6.5298e-01		1.0000e+00
			38.2		6.4755e-01		1.0000e+00
			38.25		6.4224e-01		1.0000e+00
			38.3		6.3693e-01		1.0000e+00
			38.35		6.3162e-01		1.0000e+00
			38.4		6.2631e-01		1.0000e+00
			38.45		6.2089e-01		1.0000e+00
			38.5		6.1547e-01		1.0000e+00
			38.55		6.1005e-01		1.0000e+00
			38.6		6.0463e-01		1.0000e+00
			38.65		6.0021e-01		1.0000e+00
			38.7		5.9578e-01		1.0000e+00
			38.75		5.9136e-01		1.0000e+00
			38.8		5.8693e-01		1.0000e+00
			38.85		5.8259e-01		1.0000e+00
			38.9		5.7825e-01		1.0000e+00
			38.95		5.7390e-01		1.0000e+00
			39.0		5.6956e-01		1.0000e+00
			39.05		5.6515e-01		1.0000e+00
			39.1		5.6074e-01		1.0000e+00
			39.15		5.5634e-01		1.0000e+00
			39.2		5.5193e-01		1.0000e+00
			39.25		5.4757e-01		1.0000e+00
			39.3		5.4321e-01		1.0000e+00
			39.35		5.3885e-01		1.0000e+00
			39.4		5.3449e-01		1.0000e+00
			39.45		5.3093e-01		1.0000e+00
			39.5		5.2737e-01		1.0000e+00
			39.55		5.2380e-01		1.0000e+00
			39.6		5.2024e-01		1.0000e+00
			39.65		5.1668e-01		1.0000e+00
