BEGIN_SCAN_DATA
	FORMAT=CC-Export V1.9                  
	FILE_CREATION_DATE=
	LAST_MODIFIED=11-Jan-2023 10:50:14
	BEGIN_SCAN  1
		TASK_NAME=RayStation Phantom Profiles & PDDs
		PROGRAM=RayStation
		COMMENT=RayStation Script Export
		MEAS_DATE=11-Jan-2023 10:50:14
		LINAC=RayStation
		MODALITY=X
		ISOCENTER=1000.00
		INPLANE_AXIS=Y
		CROSSPLANE_AXIS=X
		DEPTH_AXIS=Z
		INPLANE_AXIS_DIR=GUN_TARGET
		CROSSPLANE_AXIS_DIR=LEFT_RIGHT
		DEPTH_AXIS_DIR=UP_DOWN
		ENERGY=6.3
		NOMINAL_DMAX=20.00
		SSD=1000.0
		SCD=1000.00
		WEDGE_ANGLE=0.00
		FIELD_INPLANE=150.0
		FIELD_CROSSPLANE=100.0
		FIELD_TYPE=IRREGULAR
		GANTRY=0.00
		GANTRY_UPRIGHT_POSITION=0
		GANTRY_ROTATION=CW
		COLL_ANGLE=0.00
		REF_FIELD_DEPTH=50.00
		REF_FIELD_DEFINED=ISOCENTER
		FIELD_INPLANE=150.0
		FIELD_CROSSPLANE=100.0
		SCAN_CURVETYPE=CROSSPLANE_PROFILE
		SCAN_DEPTH=100.0
		SCAN_OFFAXIS_INPLANE=0.00
		SCAN_OFFAXIS_CROSSPLANE=0.00
		SCAN_ANGLE=0.00
		SCAN_DIAGONAL=NOT_DIAGONAL
		SCAN_DIRECTION=NEGATIVE
		MEAS_MEDIUM=WATER
		MEAS_UNIT=cGy
		INCLINATION_ANGLE=0.00
		PRESSURE=1013.20
		TEMPERATURE=20.00
		NORM_TEMPERATURE=20.00
		CORRECTION_FACTOR=1.0000;
		BEGIN_DATA
			-30.05		1.3376e-04		1.0000e+00
			-30.0		2.0064e-04		1.0000e+00
			-29.95		2.6751e-04		1.0000e+00
			-29.9		2.7344e-04		1.0000e+00
			-29.85		2.7936e-04		1.0000e+00
			-29.8		2.8529e-04		1.0000e+00
			-29.75		2.9122e-04		1.0000e+00
			-29.7		2.9259e-04		1.0000e+00
			-29.65		2.9396e-04		1.0000e+00
			-29.6		2.9533e-04		1.0000e+00
			-29.55		2.9669e-04		1.0000e+00
			-29.5		3.0463e-04		1.0000e+00
			-29.45		3.1256e-04		1.0000e+00
			-29.4		3.2050e-04		1.0000e+00
			-29.35		3.2843e-04		1.0000e+00
			-29.3		3.2964e-04		1.0000e+00
			-29.25		3.3084e-04		1.0000e+00
			-29.2		3.3205e-04		1.0000e+00
			-29.15		3.3325e-04		1.0000e+00
			-29.1		3.4328e-04		1.0000e+00
			-29.05		3.5331e-04		1.0000e+00
			-29.0		3.6333e-04		1.0000e+00
			-28.95		3.7336e-04		1.0000e+00
			-28.9		3.7502e-04		1.0000e+00
			-28.85		3.7668e-04		1.0000e+00
			-28.8		3.7834e-04		1.0000e+00
			-28.75		3.8000e-04		1.0000e+00
			-28.7		3.9249e-04		1.0000e+00
			-28.65		4.0498e-04		1.0000e+00
			-28.6		4.1746e-04		1.0000e+00
			-28.55		4.2995e-04		1.0000e+00
			-28.5		4.3295e-04		1.0000e+00
			-28.45		4.3595e-04		1.0000e+00
			-28.4		4.3895e-04		1.0000e+00
			-28.35		4.4195e-04		1.0000e+00
			-28.3		4.5676e-04		1.0000e+00
			-28.25		4.7157e-04		1.0000e+00
			-28.2		4.8639e-04		1.0000e+00
			-28.15		5.0120e-04		1.0000e+00
			-28.1		5.0656e-04		1.0000e+00
			-28.05		5.1192e-04		1.0000e+00
			-28.0		5.1728e-04		1.0000e+00
			-27.95		5.2264e-04		1.0000e+00
			-27.9		5.4006e-04		1.0000e+00
			-27.85		5.5749e-04		1.0000e+00
			-27.8		5.7492e-04		1.0000e+00
			-27.75		5.9234e-04		1.0000e+00
			-27.7		6.0153e-04		1.0000e+00
			-27.65		6.1071e-04		1.0000e+00
			-27.6		6.1989e-04		1.0000e+00
			-27.55		6.2907e-04		1.0000e+00
			-27.5		6.4825e-04		1.0000e+00
			-27.45		6.6743e-04		1.0000e+00
			-27.4		6.8662e-04		1.0000e+00
			-27.35		7.0580e-04		1.0000e+00
			-27.3		7.2106e-04		1.0000e+00
			-27.25		7.3632e-04		1.0000e+00
			-27.2		7.5158e-04		1.0000e+00
			-27.15		7.6685e-04		1.0000e+00
			-27.1		7.8655e-04		1.0000e+00
			-27.05		8.0626e-04		1.0000e+00
			-27.0		8.2597e-04		1.0000e+00
			-26.95		8.4568e-04		1.0000e+00
			-26.9		8.7094e-04		1.0000e+00
			-26.85		8.9620e-04		1.0000e+00
			-26.8		9.2146e-04		1.0000e+00
			-26.75		9.4672e-04		1.0000e+00
			-26.7		9.6545e-04		1.0000e+00
			-26.65		9.8418e-04		1.0000e+00
			-26.6		1.0029e-03		1.0000e+00
			-26.55		1.0216e-03		1.0000e+00
			-26.5		1.0595e-03		1.0000e+00
			-26.45		1.0974e-03		1.0000e+00
			-26.4		1.1353e-03		1.0000e+00
			-26.35		1.1731e-03		1.0000e+00
			-26.3		1.1913e-03		1.0000e+00
			-26.25		1.2094e-03		1.0000e+00
			-26.2		1.2275e-03		1.0000e+00
			-26.15		1.2456e-03		1.0000e+00
			-26.1		1.2997e-03		1.0000e+00
			-26.05		1.3538e-03		1.0000e+00
			-26.0		1.4079e-03		1.0000e+00
			-25.95		1.4620e-03		1.0000e+00
			-25.9		1.4790e-03		1.0000e+00
			-25.85		1.4959e-03		1.0000e+00
			-25.8		1.5129e-03		1.0000e+00
			-25.75		1.5298e-03		1.0000e+00
			-25.7		1.6049e-03		1.0000e+00
			-25.65		1.6800e-03		1.0000e+00
			-25.6		1.7551e-03		1.0000e+00
			-25.55		1.8302e-03		1.0000e+00
			-25.5		1.8446e-03		1.0000e+00
			-25.45		1.8590e-03		1.0000e+00
			-25.4		1.8735e-03		1.0000e+00
			-25.35		1.8879e-03		1.0000e+00
			-25.3		1.9882e-03		1.0000e+00
			-25.25		2.0884e-03		1.0000e+00
			-25.2		2.1887e-03		1.0000e+00
			-25.15		2.2890e-03		1.0000e+00
			-25.1		2.3021e-03		1.0000e+00
			-25.05		2.3151e-03		1.0000e+00
			-25.0		2.3282e-03		1.0000e+00
			-24.95		2.3413e-03		1.0000e+00
			-24.9		2.4665e-03		1.0000e+00
			-24.85		2.5917e-03		1.0000e+00
			-24.8		2.7169e-03		1.0000e+00
			-24.75		2.8421e-03		1.0000e+00
			-24.7		2.8611e-03		1.0000e+00
			-24.65		2.8801e-03		1.0000e+00
			-24.6		2.8990e-03		1.0000e+00
			-24.55		2.9180e-03		1.0000e+00
			-24.5		3.0698e-03		1.0000e+00
			-24.45		3.2215e-03		1.0000e+00
			-24.4		3.3732e-03		1.0000e+00
			-24.35		3.5250e-03		1.0000e+00
			-24.3		3.5614e-03		1.0000e+00
			-24.25		3.5978e-03		1.0000e+00
			-24.2		3.6343e-03		1.0000e+00
			-24.15		3.6707e-03		1.0000e+00
			-24.1		3.8446e-03		1.0000e+00
			-24.05		4.0186e-03		1.0000e+00
			-24.0		4.1925e-03		1.0000e+00
			-23.95		4.3664e-03		1.0000e+00
			-23.9		4.4284e-03		1.0000e+00
			-23.85		4.4904e-03		1.0000e+00
			-23.8		4.5524e-03		1.0000e+00
			-23.75		4.6144e-03		1.0000e+00
			-23.7		4.8071e-03		1.0000e+00
			-23.65		4.9998e-03		1.0000e+00
			-23.6		5.1924e-03		1.0000e+00
			-23.55		5.3851e-03		1.0000e+00
			-23.5		5.4861e-03		1.0000e+00
			-23.45		5.5870e-03		1.0000e+00
			-23.4		5.6880e-03		1.0000e+00
			-23.35		5.7890e-03		1.0000e+00
			-23.3		5.9887e-03		1.0000e+00
			-23.25		6.1883e-03		1.0000e+00
			-23.2		6.3880e-03		1.0000e+00
			-23.15		6.5877e-03		1.0000e+00
			-23.1		6.7498e-03		1.0000e+00
			-23.05		6.9120e-03		1.0000e+00
			-23.0		7.0741e-03		1.0000e+00
			-22.95		7.2362e-03		1.0000e+00
			-22.9		7.4261e-03		1.0000e+00
			-22.85		7.6159e-03		1.0000e+00
			-22.8		7.8057e-03		1.0000e+00
			-22.75		7.9955e-03		1.0000e+00
			-22.7		8.2531e-03		1.0000e+00
			-22.65		8.5107e-03		1.0000e+00
			-22.6		8.7682e-03		1.0000e+00
			-22.55		9.0258e-03		1.0000e+00
			-22.5		9.1972e-03		1.0000e+00
			-22.45		9.3686e-03		1.0000e+00
			-22.4		9.5400e-03		1.0000e+00
			-22.35		9.7114e-03		1.0000e+00
			-22.3		1.0081e-02		1.0000e+00
			-22.25		1.0450e-02		1.0000e+00
			-22.2		1.0820e-02		1.0000e+00
			-22.15		1.1189e-02		1.0000e+00
			-22.1		1.1348e-02		1.0000e+00
			-22.05		1.1506e-02		1.0000e+00
			-22.0		1.1665e-02		1.0000e+00
			-21.95		1.1823e-02		1.0000e+00
			-21.9		1.2316e-02		1.0000e+00
			-21.85		1.2808e-02		1.0000e+00
			-21.8		1.3300e-02		1.0000e+00
			-21.75		1.3793e-02		1.0000e+00
			-21.7		1.3931e-02		1.0000e+00
			-21.65		1.4070e-02		1.0000e+00
			-21.6		1.4208e-02		1.0000e+00
			-21.55		1.4346e-02		1.0000e+00
			-21.5		1.4985e-02		1.0000e+00
			-21.45		1.5625e-02		1.0000e+00
			-21.4		1.6264e-02		1.0000e+00
			-21.35		1.6903e-02		1.0000e+00
			-21.3		1.7009e-02		1.0000e+00
			-21.25		1.7114e-02		1.0000e+00
			-21.2		1.7220e-02		1.0000e+00
			-21.15		1.7326e-02		1.0000e+00
			-21.1		1.8126e-02		1.0000e+00
			-21.05		1.8926e-02		1.0000e+00
			-21.0		1.9726e-02		1.0000e+00
			-20.95		2.0526e-02		1.0000e+00
			-20.9		2.0619e-02		1.0000e+00
			-20.85		2.0712e-02		1.0000e+00
			-20.8		2.0805e-02		1.0000e+00
			-20.75		2.0898e-02		1.0000e+00
			-20.7		2.1829e-02		1.0000e+00
			-20.65		2.2761e-02		1.0000e+00
			-20.6		2.3692e-02		1.0000e+00
			-20.55		2.4624e-02		1.0000e+00
			-20.5		2.4763e-02		1.0000e+00
			-20.45		2.4902e-02		1.0000e+00
			-20.4		2.5041e-02		1.0000e+00
			-20.35		2.5180e-02		1.0000e+00
			-20.3		2.6225e-02		1.0000e+00
			-20.25		2.7269e-02		1.0000e+00
			-20.2		2.8314e-02		1.0000e+00
			-20.15		2.9358e-02		1.0000e+00
			-20.1		2.9620e-02		1.0000e+00
			-20.05		2.9882e-02		1.0000e+00
			-20.0		3.0144e-02		1.0000e+00
			-19.95		3.0406e-02		1.0000e+00
			-19.9		3.1518e-02		1.0000e+00
			-19.85		3.2629e-02		1.0000e+00
			-19.8		3.3741e-02		1.0000e+00
			-19.75		3.4853e-02		1.0000e+00
			-19.7		3.5262e-02		1.0000e+00
			-19.65		3.5670e-02		1.0000e+00
			-19.6		3.6078e-02		1.0000e+00
			-19.55		3.6487e-02		1.0000e+00
			-19.5		3.7629e-02		1.0000e+00
			-19.45		3.8771e-02		1.0000e+00
			-19.4		3.9914e-02		1.0000e+00
			-19.35		4.1056e-02		1.0000e+00
			-19.3		4.1669e-02		1.0000e+00
			-19.25		4.2281e-02		1.0000e+00
			-19.2		4.2894e-02		1.0000e+00
			-19.15		4.3507e-02		1.0000e+00
			-19.1		4.4604e-02		1.0000e+00
			-19.05		4.5702e-02		1.0000e+00
			-19.0		4.6799e-02		1.0000e+00
			-18.95		4.7896e-02		1.0000e+00
			-18.9		4.8810e-02		1.0000e+00
			-18.85		4.9724e-02		1.0000e+00
			-18.8		5.0637e-02		1.0000e+00
			-18.75		5.1551e-02		1.0000e+00
			-18.7		5.2500e-02		1.0000e+00
			-18.65		5.3449e-02		1.0000e+00
			-18.6		5.4398e-02		1.0000e+00
			-18.55		5.5348e-02		1.0000e+00
			-18.5		5.6707e-02		1.0000e+00
			-18.45		5.8067e-02		1.0000e+00
			-18.4		5.9427e-02		1.0000e+00
			-18.35		6.0786e-02		1.0000e+00
			-18.3		6.1579e-02		1.0000e+00
			-18.25		6.2371e-02		1.0000e+00
			-18.2		6.3164e-02		1.0000e+00
			-18.15		6.3956e-02		1.0000e+00
			-18.1		6.5752e-02		1.0000e+00
			-18.05		6.7547e-02		1.0000e+00
			-18.0		6.9342e-02		1.0000e+00
			-17.95		7.1137e-02		1.0000e+00
			-17.9		7.1829e-02		1.0000e+00
			-17.85		7.2520e-02		1.0000e+00
			-17.8		7.3212e-02		1.0000e+00
			-17.75		7.3903e-02		1.0000e+00
			-17.7		7.6102e-02		1.0000e+00
			-17.65		7.8301e-02		1.0000e+00
			-17.6		8.0500e-02		1.0000e+00
			-17.55		8.2699e-02		1.0000e+00
			-17.5		8.3257e-02		1.0000e+00
			-17.45		8.3814e-02		1.0000e+00
			-17.4		8.4372e-02		1.0000e+00
			-17.35		8.4930e-02		1.0000e+00
			-17.3		8.7570e-02		1.0000e+00
			-17.25		9.0210e-02		1.0000e+00
			-17.2		9.2849e-02		1.0000e+00
			-17.15		9.5489e-02		1.0000e+00
			-17.1		9.5871e-02		1.0000e+00
			-17.05		9.6253e-02		1.0000e+00
			-17.0		9.6635e-02		1.0000e+00
			-16.95		9.7018e-02		1.0000e+00
			-16.9		1.0006e-01		1.0000e+00
			-16.85		1.0309e-01		1.0000e+00
			-16.8		1.0613e-01		1.0000e+00
			-16.75		1.0917e-01		1.0000e+00
			-16.7		1.0949e-01		1.0000e+00
			-16.65		1.0980e-01		1.0000e+00
			-16.6		1.1012e-01		1.0000e+00
			-16.55		1.1044e-01		1.0000e+00
			-16.5		1.1371e-01		1.0000e+00
			-16.45		1.1698e-01		1.0000e+00
			-16.4		1.2024e-01		1.0000e+00
			-16.35		1.2352e-01		1.0000e+00
			-16.3		1.9229e-01		1.0000e+00
			-16.25		2.6107e-01		1.0000e+00
			-16.2		3.2984e-01		1.0000e+00
			-16.15		3.9862e-01		1.0000e+00
			-16.1		4.3464e-01		1.0000e+00
			-16.05		4.7066e-01		1.0000e+00
			-16.0		5.0668e-01		1.0000e+00
			-15.95		5.4270e-01		1.0000e+00
			-15.9		5.7874e-01		1.0000e+00
			-15.85		6.1478e-01		1.0000e+00
			-15.8		6.5083e-01		1.0000e+00
			-15.75		6.8687e-01		1.0000e+00
			-15.7		6.9143e-01		1.0000e+00
			-15.65		6.9600e-01		1.0000e+00
			-15.6		7.0056e-01		1.0000e+00
			-15.55		7.0513e-01		1.0000e+00
			-15.5		7.0970e-01		1.0000e+00
			-15.45		7.1426e-01		1.0000e+00
			-15.4		7.1883e-01		1.0000e+00
			-15.35		7.2340e-01		1.0000e+00
			-15.3		7.2797e-01		1.0000e+00
			-15.25		7.3254e-01		1.0000e+00
			-15.2		7.3711e-01		1.0000e+00
			-15.15		7.4168e-01		1.0000e+00
			-15.1		7.4625e-01		1.0000e+00
			-15.05		7.5082e-01		1.0000e+00
			-15.0		7.5539e-01		1.0000e+00
			-14.95		7.5997e-01		1.0000e+00
			-14.9		7.6615e-01		1.0000e+00
			-14.85		7.7234e-01		1.0000e+00
			-14.8		7.7852e-01		1.0000e+00
			-14.75		7.8471e-01		1.0000e+00
			-14.7		7.9089e-01		1.0000e+00
			-14.65		7.9708e-01		1.0000e+00
			-14.6		8.0327e-01		1.0000e+00
			-14.55		8.0946e-01		1.0000e+00
			-14.5		8.1565e-01		1.0000e+00
			-14.45		8.2184e-01		1.0000e+00
			-14.4		8.2803e-01		1.0000e+00
			-14.35		8.3422e-01		1.0000e+00
			-14.3		8.4041e-01		1.0000e+00
			-14.25		8.4660e-01		1.0000e+00
			-14.2		8.5280e-01		1.0000e+00
			-14.15		8.5899e-01		1.0000e+00
			-14.1		8.6854e-01		1.0000e+00
			-14.05		8.7810e-01		1.0000e+00
			-14.0		8.8765e-01		1.0000e+00
			-13.95		8.9721e-01		1.0000e+00
			-13.9		9.0677e-01		1.0000e+00
			-13.85		9.1633e-01		1.0000e+00
			-13.8		9.2589e-01		1.0000e+00
			-13.75		9.3545e-01		1.0000e+00
			-13.7		9.4501e-01		1.0000e+00
			-13.65		9.5457e-01		1.0000e+00
			-13.6		9.6414e-01		1.0000e+00
			-13.55		9.7370e-01		1.0000e+00
			-13.5		9.8327e-01		1.0000e+00
			-13.45		9.9284e-01		1.0000e+00
			-13.4		1.0024e+00		1.0000e+00
			-13.35		1.0120e+00		1.0000e+00
			-13.3		1.0267e+00		1.0000e+00
			-13.25		1.0414e+00		1.0000e+00
			-13.2		1.0561e+00		1.0000e+00
			-13.15		1.0708e+00		1.0000e+00
			-13.1		1.0855e+00		1.0000e+00
			-13.05		1.1002e+00		1.0000e+00
			-13.0		1.1149e+00		1.0000e+00
			-12.95		1.1296e+00		1.0000e+00
			-12.9		1.1443e+00		1.0000e+00
			-12.85		1.1590e+00		1.0000e+00
			-12.8		1.1738e+00		1.0000e+00
			-12.75		1.1885e+00		1.0000e+00
			-12.7		1.2032e+00		1.0000e+00
			-12.65		1.2179e+00		1.0000e+00
			-12.6		1.2326e+00		1.0000e+00
			-12.55		1.2474e+00		1.0000e+00
			-12.5		1.2618e+00		1.0000e+00
			-12.45		1.2762e+00		1.0000e+00
			-12.4		1.2907e+00		1.0000e+00
			-12.35		1.3051e+00		1.0000e+00
			-12.3		1.3195e+00		1.0000e+00
			-12.25		1.3340e+00		1.0000e+00
			-12.2		1.3484e+00		1.0000e+00
			-12.15		1.3629e+00		1.0000e+00
			-12.1		1.3773e+00		1.0000e+00
			-12.05		1.3918e+00		1.0000e+00
			-12.0		1.4062e+00		1.0000e+00
			-11.95		1.4207e+00		1.0000e+00
			-11.9		1.4351e+00		1.0000e+00
			-11.85		1.4496e+00		1.0000e+00
			-11.8		1.4640e+00		1.0000e+00
			-11.75		1.4785e+00		1.0000e+00
			-11.7		1.5219e+00		1.0000e+00
			-11.65		1.5653e+00		1.0000e+00
			-11.6		1.6088e+00		1.0000e+00
			-11.55		1.6522e+00		1.0000e+00
			-11.5		1.6956e+00		1.0000e+00
			-11.45		1.7391e+00		1.0000e+00
			-11.4		1.7825e+00		1.0000e+00
			-11.35		1.8260e+00		1.0000e+00
			-11.3		1.8693e+00		1.0000e+00
			-11.25		1.9127e+00		1.0000e+00
			-11.2		1.9560e+00		1.0000e+00
			-11.15		1.9993e+00		1.0000e+00
			-11.1		2.0424e+00		1.0000e+00
			-11.05		2.0855e+00		1.0000e+00
			-11.0		2.1286e+00		1.0000e+00
			-10.95		2.1718e+00		1.0000e+00
			-10.9		2.4360e+00		1.0000e+00
			-10.85		2.7002e+00		1.0000e+00
			-10.8		2.9644e+00		1.0000e+00
			-10.75		3.2286e+00		1.0000e+00
			-10.7		3.7902e+00		1.0000e+00
			-10.65		4.3518e+00		1.0000e+00
			-10.6		4.9133e+00		1.0000e+00
			-10.55		5.4749e+00		1.0000e+00
			-10.5		5.9339e+00		1.0000e+00
			-10.45		6.3928e+00		1.0000e+00
			-10.4		6.8518e+00		1.0000e+00
			-10.35		7.3107e+00		1.0000e+00
			-10.3		7.5115e+00		1.0000e+00
			-10.25		7.7123e+00		1.0000e+00
			-10.2		7.9131e+00		1.0000e+00
			-10.15		8.1139e+00		1.0000e+00
			-10.1		8.1953e+00		1.0000e+00
			-10.05		8.2768e+00		1.0000e+00
			-10.0		8.3582e+00		1.0000e+00
			-9.95		8.4397e+00		1.0000e+00
			-9.9		8.4857e+00		1.0000e+00
			-9.85		8.5317e+00		1.0000e+00
			-9.8		8.5777e+00		1.0000e+00
			-9.75		8.6237e+00		1.0000e+00
			-9.7		8.6529e+00		1.0000e+00
			-9.65		8.6822e+00		1.0000e+00
			-9.6		8.7114e+00		1.0000e+00
			-9.55		8.7407e+00		1.0000e+00
			-9.5		8.7704e+00		1.0000e+00
			-9.45		8.8000e+00		1.0000e+00
			-9.4		8.8297e+00		1.0000e+00
			-9.35		8.8594e+00		1.0000e+00
			-9.3		8.8762e+00		1.0000e+00
			-9.25		8.8929e+00		1.0000e+00
			-9.2		8.9097e+00		1.0000e+00
			-9.15		8.9265e+00		1.0000e+00
			-9.1		8.9433e+00		1.0000e+00
			-9.05		8.9601e+00		1.0000e+00
			-9.0		8.9769e+00		1.0000e+00
			-8.95		8.9937e+00		1.0000e+00
			-8.9		9.0104e+00		1.0000e+00
			-8.85		9.0272e+00		1.0000e+00
			-8.8		9.0440e+00		1.0000e+00
			-8.75		9.0608e+00		1.0000e+00
			-8.7		9.0776e+00		1.0000e+00
			-8.65		9.0943e+00		1.0000e+00
			-8.6		9.1111e+00		1.0000e+00
			-8.55		9.1279e+00		1.0000e+00
			-8.5		9.1405e+00		1.0000e+00
			-8.45		9.1531e+00		1.0000e+00
			-8.4		9.1658e+00		1.0000e+00
			-8.35		9.1784e+00		1.0000e+00
			-8.3		9.1910e+00		1.0000e+00
			-8.25		9.2036e+00		1.0000e+00
			-8.2		9.2162e+00		1.0000e+00
			-8.15		9.2288e+00		1.0000e+00
			-8.1		9.2415e+00		1.0000e+00
			-8.05		9.2541e+00		1.0000e+00
			-8.0		9.2667e+00		1.0000e+00
			-7.95		9.2793e+00		1.0000e+00
			-7.9		9.2919e+00		1.0000e+00
			-7.85		9.3045e+00		1.0000e+00
			-7.8		9.3171e+00		1.0000e+00
			-7.75		9.3297e+00		1.0000e+00
			-7.7		9.3409e+00		1.0000e+00
			-7.65		9.3521e+00		1.0000e+00
			-7.6		9.3633e+00		1.0000e+00
			-7.55		9.3745e+00		1.0000e+00
			-7.5		9.3857e+00		1.0000e+00
			-7.45		9.3968e+00		1.0000e+00
			-7.4		9.4080e+00		1.0000e+00
			-7.35		9.4192e+00		1.0000e+00
			-7.3		9.4304e+00		1.0000e+00
			-7.25		9.4416e+00		1.0000e+00
			-7.2		9.4528e+00		1.0000e+00
			-7.15		9.4639e+00		1.0000e+00
			-7.1		9.4751e+00		1.0000e+00
			-7.05		9.4863e+00		1.0000e+00
			-7.0		9.4974e+00		1.0000e+00
			-6.95		9.5086e+00		1.0000e+00
			-6.9		9.5170e+00		1.0000e+00
			-6.85		9.5254e+00		1.0000e+00
			-6.8		9.5338e+00		1.0000e+00
			-6.75		9.5422e+00		1.0000e+00
			-6.7		9.5506e+00		1.0000e+00
			-6.65		9.5590e+00		1.0000e+00
			-6.6		9.5674e+00		1.0000e+00
			-6.55		9.5757e+00		1.0000e+00
			-6.5		9.5841e+00		1.0000e+00
			-6.45		9.5925e+00		1.0000e+00
			-6.4		9.6009e+00		1.0000e+00
			-6.35		9.6093e+00		1.0000e+00
			-6.3		9.6176e+00		1.0000e+00
			-6.25		9.6260e+00		1.0000e+00
			-6.2		9.6344e+00		1.0000e+00
			-6.15		9.6428e+00		1.0000e+00
			-6.1		9.6509e+00		1.0000e+00
			-6.05		9.6590e+00		1.0000e+00
			-6.0		9.6671e+00		1.0000e+00
			-5.95		9.6752e+00		1.0000e+00
			-5.9		9.6833e+00		1.0000e+00
			-5.85		9.6914e+00		1.0000e+00
			-5.8		9.6995e+00		1.0000e+00
			-5.75		9.7076e+00		1.0000e+00
			-5.7		9.7157e+00		1.0000e+00
			-5.65		9.7238e+00		1.0000e+00
			-5.6		9.7318e+00		1.0000e+00
			-5.55		9.7399e+00		1.0000e+00
			-5.5		9.7480e+00		1.0000e+00
			-5.45		9.7561e+00		1.0000e+00
			-5.4		9.7642e+00		1.0000e+00
			-5.35		9.7723e+00		1.0000e+00
			-5.3		9.7790e+00		1.0000e+00
			-5.25		9.7858e+00		1.0000e+00
			-5.2		9.7926e+00		1.0000e+00
			-5.15		9.7994e+00		1.0000e+00
			-5.1		9.8062e+00		1.0000e+00
			-5.05		9.8129e+00		1.0000e+00
			-5.0		9.8197e+00		1.0000e+00
			-4.95		9.8265e+00		1.0000e+00
			-4.9		9.8333e+00		1.0000e+00
			-4.85		9.8400e+00		1.0000e+00
			-4.8		9.8468e+00		1.0000e+00
			-4.75		9.8535e+00		1.0000e+00
			-4.7		9.8603e+00		1.0000e+00
			-4.65		9.8671e+00		1.0000e+00
			-4.6		9.8738e+00		1.0000e+00
			-4.55		9.8806e+00		1.0000e+00
			-4.5		9.8857e+00		1.0000e+00
			-4.45		9.8909e+00		1.0000e+00
			-4.4		9.8961e+00		1.0000e+00
			-4.35		9.9013e+00		1.0000e+00
			-4.3		9.9064e+00		1.0000e+00
			-4.25		9.9116e+00		1.0000e+00
			-4.2		9.9167e+00		1.0000e+00
			-4.15		9.9219e+00		1.0000e+00
			-4.1		9.9271e+00		1.0000e+00
			-4.05		9.9322e+00		1.0000e+00
			-4.0		9.9374e+00		1.0000e+00
			-3.95		9.9425e+00		1.0000e+00
			-3.9		9.9477e+00		1.0000e+00
			-3.85		9.9528e+00		1.0000e+00
			-3.8		9.9579e+00		1.0000e+00
			-3.75		9.9631e+00		1.0000e+00
			-3.7		9.9676e+00		1.0000e+00
			-3.65		9.9721e+00		1.0000e+00
			-3.6		9.9765e+00		1.0000e+00
			-3.55		9.9810e+00		1.0000e+00
			-3.5		9.9855e+00		1.0000e+00
			-3.45		9.9900e+00		1.0000e+00
			-3.4		9.9945e+00		1.0000e+00
			-3.35		9.9989e+00		1.0000e+00
			-3.3		1.0003e+01		1.0000e+00
			-3.25		1.0008e+01		1.0000e+00
			-3.2		1.0012e+01		1.0000e+00
			-3.15		1.0017e+01		1.0000e+00
			-3.1		1.0021e+01		1.0000e+00
			-3.05		1.0026e+01		1.0000e+00
			-3.0		1.0030e+01		1.0000e+00
			-2.95		1.0035e+01		1.0000e+00
			-2.9		1.0039e+01		1.0000e+00
			-2.85		1.0044e+01		1.0000e+00
			-2.8		1.0049e+01		1.0000e+00
			-2.75		1.0053e+01		1.0000e+00
			-2.7		1.0058e+01		1.0000e+00
			-2.65		1.0063e+01		1.0000e+00
			-2.6		1.0068e+01		1.0000e+00
			-2.55		1.0072e+01		1.0000e+00
			-2.5		1.0077e+01		1.0000e+00
			-2.45		1.0082e+01		1.0000e+00
			-2.4		1.0086e+01		1.0000e+00
			-2.35		1.0091e+01		1.0000e+00
			-2.3		1.0096e+01		1.0000e+00
			-2.25		1.0100e+01		1.0000e+00
			-2.2		1.0105e+01		1.0000e+00
			-2.15		1.0110e+01		1.0000e+00
			-2.1		1.0113e+01		1.0000e+00
			-2.05		1.0117e+01		1.0000e+00
			-2.0		1.0121e+01		1.0000e+00
			-1.95		1.0124e+01		1.0000e+00
			-1.9		1.0128e+01		1.0000e+00
			-1.85		1.0131e+01		1.0000e+00
			-1.8		1.0135e+01		1.0000e+00
			-1.75		1.0139e+01		1.0000e+00
			-1.7		1.0142e+01		1.0000e+00
			-1.65		1.0146e+01		1.0000e+00
			-1.6		1.0150e+01		1.0000e+00
			-1.55		1.0153e+01		1.0000e+00
			-1.5		1.0157e+01		1.0000e+00
			-1.45		1.0160e+01		1.0000e+00
			-1.4		1.0164e+01		1.0000e+00
			-1.35		1.0168e+01		1.0000e+00
			-1.3		1.0170e+01		1.0000e+00
			-1.25		1.0173e+01		1.0000e+00
			-1.2		1.0176e+01		1.0000e+00
			-1.15		1.0178e+01		1.0000e+00
			-1.1		1.0181e+01		1.0000e+00
			-1.05		1.0184e+01		1.0000e+00
			-1.0		1.0186e+01		1.0000e+00
			-0.95		1.0189e+01		1.0000e+00
			-0.9		1.0191e+01		1.0000e+00
			-0.85		1.0194e+01		1.0000e+00
			-0.8		1.0197e+01		1.0000e+00
			-0.75		1.0199e+01		1.0000e+00
			-0.7		1.0202e+01		1.0000e+00
			-0.65		1.0205e+01		1.0000e+00
			-0.6		1.0207e+01		1.0000e+00
			-0.55		1.0210e+01		1.0000e+00
			-0.5		1.0210e+01		1.0000e+00
			-0.45		1.0210e+01		1.0000e+00
			-0.4		1.0210e+01		1.0000e+00
			-0.35		1.0210e+01		1.0000e+00
			-0.3		1.0210e+01		1.0000e+00
			-0.25		1.0210e+01		1.0000e+00
			-0.2		1.0210e+01		1.0000e+00
			-0.15		1.0210e+01		1.0000e+00
			-0.1		1.0210e+01		1.0000e+00
			-0.05		1.0210e+01		1.0000e+00
			0.0		1.0211e+01		1.0000e+00
			0.05		1.0211e+01		1.0000e+00
			0.1		1.0211e+01		1.0000e+00
			0.15		1.0211e+01		1.0000e+00
			0.2		1.0211e+01		1.0000e+00
			0.25		1.0211e+01		1.0000e+00
			0.3		1.0209e+01		1.0000e+00
			0.35		1.0207e+01		1.0000e+00
			0.4		1.0205e+01		1.0000e+00
			0.45		1.0203e+01		1.0000e+00
			0.5		1.0201e+01		1.0000e+00
			0.55		1.0199e+01		1.0000e+00
			0.6		1.0197e+01		1.0000e+00
			0.65		1.0195e+01		1.0000e+00
			0.7		1.0193e+01		1.0000e+00
			0.75		1.0191e+01		1.0000e+00
			0.8		1.0188e+01		1.0000e+00
			0.85		1.0186e+01		1.0000e+00
			0.9		1.0184e+01		1.0000e+00
			0.95		1.0182e+01		1.0000e+00
			1.0		1.0180e+01		1.0000e+00
			1.05		1.0178e+01		1.0000e+00
			1.1		1.0175e+01		1.0000e+00
			1.15		1.0172e+01		1.0000e+00
			1.2		1.0169e+01		1.0000e+00
			1.25		1.0166e+01		1.0000e+00
			1.3		1.0162e+01		1.0000e+00
			1.35		1.0159e+01		1.0000e+00
			1.4		1.0156e+01		1.0000e+00
			1.45		1.0153e+01		1.0000e+00
			1.5		1.0150e+01		1.0000e+00
			1.55		1.0147e+01		1.0000e+00
			1.6		1.0143e+01		1.0000e+00
			1.65		1.0140e+01		1.0000e+00
			1.7		1.0137e+01		1.0000e+00
			1.75		1.0134e+01		1.0000e+00
			1.8		1.0131e+01		1.0000e+00
			1.85		1.0127e+01		1.0000e+00
			1.9		1.0123e+01		1.0000e+00
			1.95		1.0118e+01		1.0000e+00
			2.0		1.0114e+01		1.0000e+00
			2.05		1.0109e+01		1.0000e+00
			2.1		1.0104e+01		1.0000e+00
			2.15		1.0100e+01		1.0000e+00
			2.2		1.0095e+01		1.0000e+00
			2.25		1.0090e+01		1.0000e+00
			2.3		1.0086e+01		1.0000e+00
			2.35		1.0081e+01		1.0000e+00
			2.4		1.0077e+01		1.0000e+00
			2.45		1.0072e+01		1.0000e+00
			2.5		1.0067e+01		1.0000e+00
			2.55		1.0063e+01		1.0000e+00
			2.6		1.0058e+01		1.0000e+00
			2.65		1.0053e+01		1.0000e+00
			2.7		1.0049e+01		1.0000e+00
			2.75		1.0044e+01		1.0000e+00
			2.8		1.0040e+01		1.0000e+00
			2.85		1.0036e+01		1.0000e+00
			2.9		1.0031e+01		1.0000e+00
			2.95		1.0027e+01		1.0000e+00
			3.0		1.0022e+01		1.0000e+00
			3.05		1.0018e+01		1.0000e+00
			3.1		1.0013e+01		1.0000e+00
			3.15		1.0009e+01		1.0000e+00
			3.2		1.0004e+01		1.0000e+00
			3.25		9.9999e+00		1.0000e+00
			3.3		9.9955e+00		1.0000e+00
			3.35		9.9910e+00		1.0000e+00
			3.4		9.9865e+00		1.0000e+00
			3.45		9.9821e+00		1.0000e+00
			3.5		9.9771e+00		1.0000e+00
			3.55		9.9722e+00		1.0000e+00
			3.6		9.9672e+00		1.0000e+00
			3.65		9.9623e+00		1.0000e+00
			3.7		9.9573e+00		1.0000e+00
			3.75		9.9524e+00		1.0000e+00
			3.8		9.9474e+00		1.0000e+00
			3.85		9.9424e+00		1.0000e+00
			3.9		9.9375e+00		1.0000e+00
			3.95		9.9325e+00		1.0000e+00
			4.0		9.9275e+00		1.0000e+00
			4.05		9.9226e+00		1.0000e+00
			4.1		9.9176e+00		1.0000e+00
			4.15		9.9126e+00		1.0000e+00
			4.2		9.9077e+00		1.0000e+00
			4.25		9.9027e+00		1.0000e+00
			4.3		9.8964e+00		1.0000e+00
			4.35		9.8901e+00		1.0000e+00
			4.4		9.8838e+00		1.0000e+00
			4.45		9.8775e+00		1.0000e+00
			4.5		9.8712e+00		1.0000e+00
			4.55		9.8649e+00		1.0000e+00
			4.6		9.8586e+00		1.0000e+00
			4.65		9.8523e+00		1.0000e+00
			4.7		9.8460e+00		1.0000e+00
			4.75		9.8397e+00		1.0000e+00
			4.8		9.8334e+00		1.0000e+00
			4.85		9.8271e+00		1.0000e+00
			4.9		9.8208e+00		1.0000e+00
			4.95		9.8145e+00		1.0000e+00
			5.0		9.8082e+00		1.0000e+00
			5.05		9.8019e+00		1.0000e+00
			5.1		9.7941e+00		1.0000e+00
			5.15		9.7864e+00		1.0000e+00
			5.2		9.7786e+00		1.0000e+00
			5.25		9.7708e+00		1.0000e+00
			5.3		9.7631e+00		1.0000e+00
			5.35		9.7553e+00		1.0000e+00
			5.4		9.7476e+00		1.0000e+00
			5.45		9.7398e+00		1.0000e+00
			5.5		9.7320e+00		1.0000e+00
			5.55		9.7242e+00		1.0000e+00
			5.6		9.7165e+00		1.0000e+00
			5.65		9.7087e+00		1.0000e+00
			5.7		9.7009e+00		1.0000e+00
			5.75		9.6931e+00		1.0000e+00
			5.8		9.6854e+00		1.0000e+00
			5.85		9.6776e+00		1.0000e+00
			5.9		9.6690e+00		1.0000e+00
			5.95		9.6603e+00		1.0000e+00
			6.0		9.6517e+00		1.0000e+00
			6.05		9.6431e+00		1.0000e+00
			6.1		9.6345e+00		1.0000e+00
			6.15		9.6258e+00		1.0000e+00
			6.2		9.6172e+00		1.0000e+00
			6.25		9.6086e+00		1.0000e+00
			6.3		9.5999e+00		1.0000e+00
			6.35		9.5913e+00		1.0000e+00
			6.4		9.5827e+00		1.0000e+00
			6.45		9.5740e+00		1.0000e+00
			6.5		9.5654e+00		1.0000e+00
			6.55		9.5567e+00		1.0000e+00
			6.6		9.5481e+00		1.0000e+00
			6.65		9.5395e+00		1.0000e+00
			6.7		9.5291e+00		1.0000e+00
			6.75		9.5188e+00		1.0000e+00
			6.8		9.5084e+00		1.0000e+00
			6.85		9.4981e+00		1.0000e+00
			6.9		9.4878e+00		1.0000e+00
			6.95		9.4774e+00		1.0000e+00
			7.0		9.4671e+00		1.0000e+00
			7.05		9.4567e+00		1.0000e+00
			7.1		9.4464e+00		1.0000e+00
			7.15		9.4360e+00		1.0000e+00
			7.2		9.4257e+00		1.0000e+00
			7.25		9.4153e+00		1.0000e+00
			7.3		9.4050e+00		1.0000e+00
			7.35		9.3946e+00		1.0000e+00
			7.4		9.3842e+00		1.0000e+00
			7.45		9.3739e+00		1.0000e+00
			7.5		9.3619e+00		1.0000e+00
			7.55		9.3500e+00		1.0000e+00
			7.6		9.3380e+00		1.0000e+00
			7.65		9.3261e+00		1.0000e+00
			7.7		9.3141e+00		1.0000e+00
			7.75		9.3022e+00		1.0000e+00
			7.8		9.2902e+00		1.0000e+00
			7.85		9.2783e+00		1.0000e+00
			7.9		9.2663e+00		1.0000e+00
			7.95		9.2544e+00		1.0000e+00
			8.0		9.2424e+00		1.0000e+00
			8.05		9.2304e+00		1.0000e+00
			8.1		9.2185e+00		1.0000e+00
			8.15		9.2065e+00		1.0000e+00
			8.2		9.1945e+00		1.0000e+00
			8.25		9.1826e+00		1.0000e+00
			8.3		9.1677e+00		1.0000e+00
			8.35		9.1529e+00		1.0000e+00
			8.4		9.1381e+00		1.0000e+00
			8.45		9.1232e+00		1.0000e+00
			8.5		9.1084e+00		1.0000e+00
			8.55		9.0936e+00		1.0000e+00
			8.6		9.0787e+00		1.0000e+00
			8.65		9.0639e+00		1.0000e+00
			8.7		9.0490e+00		1.0000e+00
			8.75		9.0342e+00		1.0000e+00
			8.8		9.0194e+00		1.0000e+00
			8.85		9.0045e+00		1.0000e+00
			8.9		8.9897e+00		1.0000e+00
			8.95		8.9748e+00		1.0000e+00
			9.0		8.9600e+00		1.0000e+00
			9.05		8.9451e+00		1.0000e+00
			9.1		8.9135e+00		1.0000e+00
			9.15		8.8818e+00		1.0000e+00
			9.2		8.8501e+00		1.0000e+00
			9.25		8.8184e+00		1.0000e+00
			9.3		8.7868e+00		1.0000e+00
			9.35		8.7551e+00		1.0000e+00
			9.4		8.7235e+00		1.0000e+00
			9.45		8.6918e+00		1.0000e+00
			9.5		8.6748e+00		1.0000e+00
			9.55		8.6577e+00		1.0000e+00
			9.6		8.6407e+00		1.0000e+00
			9.65		8.6237e+00		1.0000e+00
			9.7		8.5777e+00		1.0000e+00
			9.75		8.5317e+00		1.0000e+00
			9.8		8.4857e+00		1.0000e+00
			9.85		8.4397e+00		1.0000e+00
			9.9		8.3581e+00		1.0000e+00
			9.95		8.2765e+00		1.0000e+00
			10.0		8.1949e+00		1.0000e+00
			10.05		8.1134e+00		1.0000e+00
			10.1		7.9126e+00		1.0000e+00
			10.15		7.7118e+00		1.0000e+00
			10.2		7.5111e+00		1.0000e+00
			10.25		7.3103e+00		1.0000e+00
			10.3		6.8513e+00		1.0000e+00
			10.35		6.3923e+00		1.0000e+00
			10.4		5.9333e+00		1.0000e+00
			10.45		5.4743e+00		1.0000e+00
			10.5		4.9131e+00		1.0000e+00
			10.55		4.3518e+00		1.0000e+00
			10.6		3.7906e+00		1.0000e+00
			10.65		3.2294e+00		1.0000e+00
			10.7		2.9649e+00		1.0000e+00
			10.75		2.7005e+00		1.0000e+00
			10.8		2.4361e+00		1.0000e+00
			10.85		2.1717e+00		1.0000e+00
			10.9		2.0878e+00		1.0000e+00
			10.95		2.0039e+00		1.0000e+00
			11.0		1.9200e+00		1.0000e+00
			11.05		1.8361e+00		1.0000e+00
			11.1		1.7999e+00		1.0000e+00
			11.15		1.7638e+00		1.0000e+00
			11.2		1.7276e+00		1.0000e+00
			11.25		1.6915e+00		1.0000e+00
			11.3		1.6554e+00		1.0000e+00
			11.35		1.6192e+00		1.0000e+00
			11.4		1.5831e+00		1.0000e+00
			11.45		1.5470e+00		1.0000e+00
			11.5		1.5318e+00		1.0000e+00
			11.55		1.5166e+00		1.0000e+00
			11.6		1.5014e+00		1.0000e+00
			11.65		1.4862e+00		1.0000e+00
			11.7		1.4710e+00		1.0000e+00
			11.75		1.4558e+00		1.0000e+00
			11.8		1.4407e+00		1.0000e+00
			11.85		1.4255e+00		1.0000e+00
			11.9		1.4103e+00		1.0000e+00
			11.95		1.3951e+00		1.0000e+00
			12.0		1.3799e+00		1.0000e+00
			12.05		1.3647e+00		1.0000e+00
			12.1		1.3496e+00		1.0000e+00
			12.15		1.3344e+00		1.0000e+00
			12.2		1.3192e+00		1.0000e+00
			12.25		1.3040e+00		1.0000e+00
			12.3		1.2892e+00		1.0000e+00
			12.35		1.2744e+00		1.0000e+00
			12.4		1.2596e+00		1.0000e+00
			12.45		1.2448e+00		1.0000e+00
			12.5		1.2299e+00		1.0000e+00
			12.55		1.2151e+00		1.0000e+00
			12.6		1.2003e+00		1.0000e+00
			12.65		1.1855e+00		1.0000e+00
			12.7		1.1707e+00		1.0000e+00
			12.75		1.1559e+00		1.0000e+00
			12.8		1.1411e+00		1.0000e+00
			12.85		1.1263e+00		1.0000e+00
			12.9		1.1115e+00		1.0000e+00
			12.95		1.0967e+00		1.0000e+00
			13.0		1.0819e+00		1.0000e+00
			13.05		1.0671e+00		1.0000e+00
			13.1		1.0562e+00		1.0000e+00
			13.15		1.0454e+00		1.0000e+00
			13.2		1.0345e+00		1.0000e+00
			13.25		1.0237e+00		1.0000e+00
			13.3		1.0128e+00		1.0000e+00
			13.35		1.0020e+00		1.0000e+00
			13.4		9.9117e-01		1.0000e+00
			13.45		9.8033e-01		1.0000e+00
			13.5		9.6949e-01		1.0000e+00
			13.55		9.5866e-01		1.0000e+00
			13.6		9.4783e-01		1.0000e+00
			13.65		9.3699e-01		1.0000e+00
			13.7		9.2616e-01		1.0000e+00
			13.75		9.1533e-01		1.0000e+00
			13.8		9.0450e-01		1.0000e+00
			13.85		8.9367e-01		1.0000e+00
			13.9		8.8645e-01		1.0000e+00
			13.95		8.7923e-01		1.0000e+00
