BEGIN_SCAN_DATA
	FORMAT=CC-Export V1.9                  
	FILE_CREATION_DATE=
	LAST_MODIFIED=11-Jan-2023 11:56:56
	BEGIN_SCAN  1
		TASK_NAME=RayStation Phantom Profiles & PDDs
		PROGRAM=RayStation
		COMMENT=RayStation Script Export
		MEAS_DATE=11-Jan-2023 11:56:56
		LINAC=RayStation
		MODALITY=X
		ISOCENTER=1000.00
		INPLANE_AXIS=Y
		CROSSPLANE_AXIS=X
		DEPTH_AXIS=Z
		INPLANE_AXIS_DIR=GUN_TARGET
		CROSSPLANE_AXIS_DIR=LEFT_RIGHT
		DEPTH_AXIS_DIR=UP_DOWN
		ENERGY=6.3
		NOMINAL_DMAX=20.00
		SSD=1000.0
		SCD=1000.00
		WEDGE_ANGLE=0.00
		FIELD_INPLANE=200.0
		FIELD_CROSSPLANE=200.0
		FIELD_TYPE=IRREGULAR
		GANTRY=0.00
		GANTRY_UPRIGHT_POSITION=0
		GANTRY_ROTATION=CW
		COLL_ANGLE=0.00
		REF_FIELD_DEPTH=50.00
		REF_FIELD_DEFINED=ISOCENTER
		FIELD_INPLANE=200.0
		FIELD_CROSSPLANE=200.0
		SCAN_CURVETYPE=INPLANE_PROFILE
		SCAN_DEPTH=200.0
		SCAN_OFFAXIS_INPLANE=0.00
		SCAN_OFFAXIS_CROSSPLANE=0.00
		SCAN_ANGLE=0.00
		SCAN_DIAGONAL=NOT_DIAGONAL
		SCAN_DIRECTION=NEGATIVE
		MEAS_MEDIUM=WATER
		MEAS_UNIT=cGy
		INCLINATION_ANGLE=0.00
		PRESSURE=1013.20
		TEMPERATURE=20.00
		NORM_TEMPERATURE=20.00
		CORRECTION_FACTOR=1.0000;
		BEGIN_DATA
			-5.0		5.7058e-03		1.0000e+00
			-4.95		5.7812e-03		1.0000e+00
			-4.9		5.8565e-03		1.0000e+00
			-4.85		5.9319e-03		1.0000e+00
			-4.8		6.0072e-03		1.0000e+00
			-4.75		6.0362e-03		1.0000e+00
			-4.7		6.0651e-03		1.0000e+00
			-4.65		6.0940e-03		1.0000e+00
			-4.6		6.1229e-03		1.0000e+00
			-4.55		6.2155e-03		1.0000e+00
			-4.5		6.3081e-03		1.0000e+00
			-4.45		6.4007e-03		1.0000e+00
			-4.4		6.4933e-03		1.0000e+00
			-4.35		6.5328e-03		1.0000e+00
			-4.3		6.5722e-03		1.0000e+00
			-4.25		6.6117e-03		1.0000e+00
			-4.2		6.6511e-03		1.0000e+00
			-4.15		6.7342e-03		1.0000e+00
			-4.1		6.8172e-03		1.0000e+00
			-4.05		6.9003e-03		1.0000e+00
			-4.0		6.9833e-03		1.0000e+00
			-3.95		7.0486e-03		1.0000e+00
			-3.9		7.1138e-03		1.0000e+00
			-3.85		7.1790e-03		1.0000e+00
			-3.8		7.2443e-03		1.0000e+00
			-3.75		7.3098e-03		1.0000e+00
			-3.7		7.3754e-03		1.0000e+00
			-3.65		7.4410e-03		1.0000e+00
			-3.6		7.5065e-03		1.0000e+00
			-3.55		7.6062e-03		1.0000e+00
			-3.5		7.7060e-03		1.0000e+00
			-3.45		7.8057e-03		1.0000e+00
			-3.4		7.9054e-03		1.0000e+00
			-3.35		7.9519e-03		1.0000e+00
			-3.3		7.9984e-03		1.0000e+00
			-3.25		8.0449e-03		1.0000e+00
			-3.2		8.0914e-03		1.0000e+00
			-3.15		8.2215e-03		1.0000e+00
			-3.1		8.3516e-03		1.0000e+00
			-3.05		8.4817e-03		1.0000e+00
			-3.0		8.6117e-03		1.0000e+00
			-2.95		8.6552e-03		1.0000e+00
			-2.9		8.6986e-03		1.0000e+00
			-2.85		8.7420e-03		1.0000e+00
			-2.8		8.7855e-03		1.0000e+00
			-2.75		8.9305e-03		1.0000e+00
			-2.7		9.0756e-03		1.0000e+00
			-2.65		9.2206e-03		1.0000e+00
			-2.6		9.3656e-03		1.0000e+00
			-2.55		9.4285e-03		1.0000e+00
			-2.5		9.4913e-03		1.0000e+00
			-2.45		9.5541e-03		1.0000e+00
			-2.4		9.6169e-03		1.0000e+00
			-2.35		9.7514e-03		1.0000e+00
			-2.3		9.8860e-03		1.0000e+00
			-2.25		1.0021e-02		1.0000e+00
			-2.2		1.0155e-02		1.0000e+00
			-2.15		1.0265e-02		1.0000e+00
			-2.1		1.0376e-02		1.0000e+00
			-2.05		1.0486e-02		1.0000e+00
			-2.0		1.0596e-02		1.0000e+00
			-1.95		1.0707e-02		1.0000e+00
			-1.9		1.0818e-02		1.0000e+00
			-1.85		1.0928e-02		1.0000e+00
			-1.8		1.1039e-02		1.0000e+00
			-1.75		1.1217e-02		1.0000e+00
			-1.7		1.1395e-02		1.0000e+00
			-1.65		1.1573e-02		1.0000e+00
			-1.6		1.1751e-02		1.0000e+00
			-1.55		1.1832e-02		1.0000e+00
			-1.5		1.1914e-02		1.0000e+00
			-1.45		1.1996e-02		1.0000e+00
			-1.4		1.2078e-02		1.0000e+00
			-1.35		1.2324e-02		1.0000e+00
			-1.3		1.2571e-02		1.0000e+00
			-1.25		1.2818e-02		1.0000e+00
			-1.2		1.3065e-02		1.0000e+00
			-1.15		1.3147e-02		1.0000e+00
			-1.1		1.3229e-02		1.0000e+00
			-1.05		1.3311e-02		1.0000e+00
			-1.0		1.3393e-02		1.0000e+00
			-0.95		1.3684e-02		1.0000e+00
			-0.9		1.3975e-02		1.0000e+00
			-0.85		1.4266e-02		1.0000e+00
			-0.8		1.4557e-02		1.0000e+00
			-0.75		1.4685e-02		1.0000e+00
			-0.7		1.4812e-02		1.0000e+00
			-0.65		1.4939e-02		1.0000e+00
			-0.6		1.5066e-02		1.0000e+00
			-0.55		1.5347e-02		1.0000e+00
			-0.5		1.5628e-02		1.0000e+00
			-0.45		1.5909e-02		1.0000e+00
			-0.4		1.6190e-02		1.0000e+00
			-0.35		1.6428e-02		1.0000e+00
			-0.3		1.6667e-02		1.0000e+00
			-0.25		1.6905e-02		1.0000e+00
			-0.2		1.7144e-02		1.0000e+00
			-0.15		1.7383e-02		1.0000e+00
			-0.1		1.7623e-02		1.0000e+00
			-0.05		1.7862e-02		1.0000e+00
			-0.0		1.8101e-02		1.0000e+00
			0.05		1.8502e-02		1.0000e+00
			0.1		1.8903e-02		1.0000e+00
			0.15		1.9304e-02		1.0000e+00
			0.2		1.9705e-02		1.0000e+00
			0.25		1.9887e-02		1.0000e+00
			0.3		2.0068e-02		1.0000e+00
			0.35		2.0250e-02		1.0000e+00
			0.4		2.0432e-02		1.0000e+00
			0.45		2.1013e-02		1.0000e+00
			0.5		2.1594e-02		1.0000e+00
			0.55		2.2175e-02		1.0000e+00
			0.6		2.2756e-02		1.0000e+00
			0.65		2.2946e-02		1.0000e+00
			0.7		2.3136e-02		1.0000e+00
			0.75		2.3326e-02		1.0000e+00
			0.8		2.3515e-02		1.0000e+00
			0.85		2.4217e-02		1.0000e+00
			0.9		2.4920e-02		1.0000e+00
			0.95		2.5622e-02		1.0000e+00
			1.0		2.6324e-02		1.0000e+00
			1.05		2.6635e-02		1.0000e+00
			1.1		2.6945e-02		1.0000e+00
			1.15		2.7256e-02		1.0000e+00
			1.2		2.7566e-02		1.0000e+00
			1.25		2.8266e-02		1.0000e+00
			1.3		2.8966e-02		1.0000e+00
			1.35		2.9666e-02		1.0000e+00
			1.4		3.0366e-02		1.0000e+00
			1.45		3.0961e-02		1.0000e+00
			1.5		3.1556e-02		1.0000e+00
			1.55		3.2152e-02		1.0000e+00
			1.6		3.2747e-02		1.0000e+00
			1.65		3.3345e-02		1.0000e+00
			1.7		3.3944e-02		1.0000e+00
			1.75		3.4542e-02		1.0000e+00
			1.8		3.5140e-02		1.0000e+00
			1.85		3.6140e-02		1.0000e+00
			1.9		3.7140e-02		1.0000e+00
			1.95		3.8139e-02		1.0000e+00
			2.0		3.9139e-02		1.0000e+00
			2.05		3.9589e-02		1.0000e+00
			2.1		4.0039e-02		1.0000e+00
			2.15		4.0488e-02		1.0000e+00
			2.2		4.0938e-02		1.0000e+00
			2.25		4.2375e-02		1.0000e+00
			2.3		4.3812e-02		1.0000e+00
			2.35		4.5250e-02		1.0000e+00
			2.4		4.6687e-02		1.0000e+00
			2.45		4.7151e-02		1.0000e+00
			2.5		4.7614e-02		1.0000e+00
			2.55		4.8078e-02		1.0000e+00
			2.6		4.8542e-02		1.0000e+00
			2.65		5.0266e-02		1.0000e+00
			2.7		5.1991e-02		1.0000e+00
			2.75		5.3715e-02		1.0000e+00
			2.8		5.5440e-02		1.0000e+00
			2.85		5.6178e-02		1.0000e+00
			2.9		5.6917e-02		1.0000e+00
			2.95		5.7656e-02		1.0000e+00
			3.0		5.8394e-02		1.0000e+00
			3.05		6.0073e-02		1.0000e+00
			3.1		6.1751e-02		1.0000e+00
			3.15		6.3430e-02		1.0000e+00
			3.2		6.5108e-02		1.0000e+00
			3.25		6.6512e-02		1.0000e+00
			3.3		6.7916e-02		1.0000e+00
			3.35		6.9321e-02		1.0000e+00
			3.4		7.0725e-02		1.0000e+00
			3.45		7.2137e-02		1.0000e+00
			3.5		7.3550e-02		1.0000e+00
			3.55		7.4962e-02		1.0000e+00
			3.6		7.6375e-02		1.0000e+00
			3.65		7.8682e-02		1.0000e+00
			3.7		8.0989e-02		1.0000e+00
			3.75		8.3295e-02		1.0000e+00
			3.8		8.5602e-02		1.0000e+00
			3.85		8.6628e-02		1.0000e+00
			3.9		8.7653e-02		1.0000e+00
			3.95		8.8678e-02		1.0000e+00
			4.0		8.9703e-02		1.0000e+00
			4.05		9.2952e-02		1.0000e+00
			4.1		9.6200e-02		1.0000e+00
			4.15		9.9449e-02		1.0000e+00
			4.2		1.0270e-01		1.0000e+00
			4.25		1.0371e-01		1.0000e+00
			4.3		1.0473e-01		1.0000e+00
			4.35		1.0575e-01		1.0000e+00
			4.4		1.0676e-01		1.0000e+00
			4.45		1.5206e-01		1.0000e+00
			4.5		1.9737e-01		1.0000e+00
			4.55		2.4267e-01		1.0000e+00
			4.6		2.8797e-01		1.0000e+00
			4.65		3.2555e-01		1.0000e+00
			4.7		3.6312e-01		1.0000e+00
			4.75		4.0069e-01		1.0000e+00
			4.8		4.3826e-01		1.0000e+00
			4.85		4.7588e-01		1.0000e+00
			4.9		5.1349e-01		1.0000e+00
			4.95		5.5111e-01		1.0000e+00
			5.0		5.8872e-01		1.0000e+00
			5.05		5.9874e-01		1.0000e+00
			5.1		6.0877e-01		1.0000e+00
			5.15		6.1879e-01		1.0000e+00
			5.2		6.2881e-01		1.0000e+00
			5.25		6.3885e-01		1.0000e+00
			5.3		6.4888e-01		1.0000e+00
			5.35		6.5891e-01		1.0000e+00
			5.4		6.6895e-01		1.0000e+00
			5.45		6.7899e-01		1.0000e+00
			5.5		6.8904e-01		1.0000e+00
			5.55		6.9908e-01		1.0000e+00
			5.6		7.0912e-01		1.0000e+00
			5.65		7.1917e-01		1.0000e+00
			5.7		7.2923e-01		1.0000e+00
			5.75		7.3928e-01		1.0000e+00
			5.8		7.4933e-01		1.0000e+00
			5.85		7.5614e-01		1.0000e+00
			5.9		7.6295e-01		1.0000e+00
			5.95		7.6975e-01		1.0000e+00
			6.0		7.7656e-01		1.0000e+00
			6.05		7.8338e-01		1.0000e+00
			6.1		7.9019e-01		1.0000e+00
			6.15		7.9700e-01		1.0000e+00
			6.2		8.0381e-01		1.0000e+00
			6.25		8.1063e-01		1.0000e+00
			6.3		8.1745e-01		1.0000e+00
			6.35		8.2427e-01		1.0000e+00
			6.4		8.3109e-01		1.0000e+00
			6.45		8.3792e-01		1.0000e+00
			6.5		8.4474e-01		1.0000e+00
			6.55		8.5157e-01		1.0000e+00
			6.6		8.5839e-01		1.0000e+00
			6.65		8.6705e-01		1.0000e+00
			6.7		8.7572e-01		1.0000e+00
			6.75		8.8438e-01		1.0000e+00
			6.8		8.9305e-01		1.0000e+00
			6.85		9.0172e-01		1.0000e+00
			6.9		9.1039e-01		1.0000e+00
			6.95		9.1906e-01		1.0000e+00
			7.0		9.2773e-01		1.0000e+00
			7.05		9.3641e-01		1.0000e+00
			7.1		9.4509e-01		1.0000e+00
			7.15		9.5376e-01		1.0000e+00
			7.2		9.6244e-01		1.0000e+00
			7.25		9.7113e-01		1.0000e+00
			7.3		9.7981e-01		1.0000e+00
			7.35		9.8850e-01		1.0000e+00
			7.4		9.9718e-01		1.0000e+00
			7.45		1.0075e+00		1.0000e+00
			7.5		1.0178e+00		1.0000e+00
			7.55		1.0281e+00		1.0000e+00
			7.6		1.0384e+00		1.0000e+00
			7.65		1.0488e+00		1.0000e+00
			7.7		1.0591e+00		1.0000e+00
			7.75		1.0694e+00		1.0000e+00
			7.8		1.0797e+00		1.0000e+00
			7.85		1.0900e+00		1.0000e+00
			7.9		1.1004e+00		1.0000e+00
			7.95		1.1107e+00		1.0000e+00
			8.0		1.1210e+00		1.0000e+00
			8.05		1.1314e+00		1.0000e+00
			8.1		1.1417e+00		1.0000e+00
			8.15		1.1521e+00		1.0000e+00
			8.2		1.1624e+00		1.0000e+00
			8.25		1.1766e+00		1.0000e+00
			8.3		1.1908e+00		1.0000e+00
			8.35		1.2050e+00		1.0000e+00
			8.4		1.2191e+00		1.0000e+00
			8.45		1.2333e+00		1.0000e+00
			8.5		1.2475e+00		1.0000e+00
			8.55		1.2617e+00		1.0000e+00
			8.6		1.2759e+00		1.0000e+00
			8.65		1.2902e+00		1.0000e+00
			8.7		1.3044e+00		1.0000e+00
			8.75		1.3186e+00		1.0000e+00
			8.8		1.3328e+00		1.0000e+00
			8.85		1.3470e+00		1.0000e+00
			8.9		1.3612e+00		1.0000e+00
			8.95		1.3755e+00		1.0000e+00
			9.0		1.3897e+00		1.0000e+00
			9.05		1.4146e+00		1.0000e+00
			9.1		1.4396e+00		1.0000e+00
			9.15		1.4646e+00		1.0000e+00
			9.2		1.4895e+00		1.0000e+00
			9.25		1.5145e+00		1.0000e+00
			9.3		1.5395e+00		1.0000e+00
			9.35		1.5645e+00		1.0000e+00
			9.4		1.5895e+00		1.0000e+00
			9.45		1.6145e+00		1.0000e+00
			9.5		1.6395e+00		1.0000e+00
			9.55		1.6645e+00		1.0000e+00
			9.6		1.6895e+00		1.0000e+00
			9.65		1.7145e+00		1.0000e+00
			9.7		1.7396e+00		1.0000e+00
			9.75		1.7646e+00		1.0000e+00
			9.8		1.7896e+00		1.0000e+00
			9.85		1.8087e+00		1.0000e+00
			9.9		1.8278e+00		1.0000e+00
			9.95		1.8469e+00		1.0000e+00
			10.0		1.8661e+00		1.0000e+00
			10.05		1.8852e+00		1.0000e+00
			10.1		1.9043e+00		1.0000e+00
			10.15		1.9234e+00		1.0000e+00
			10.2		1.9425e+00		1.0000e+00
			10.25		1.9617e+00		1.0000e+00
			10.3		1.9808e+00		1.0000e+00
			10.35		2.0000e+00		1.0000e+00
			10.4		2.0191e+00		1.0000e+00
			10.45		2.0382e+00		1.0000e+00
			10.5		2.0574e+00		1.0000e+00
			10.55		2.0765e+00		1.0000e+00
			10.6		2.0957e+00		1.0000e+00
			10.65		2.1184e+00		1.0000e+00
			10.7		2.1410e+00		1.0000e+00
			10.75		2.1637e+00		1.0000e+00
			10.8		2.1864e+00		1.0000e+00
			10.85		2.2091e+00		1.0000e+00
			10.9		2.2317e+00		1.0000e+00
			10.95		2.2544e+00		1.0000e+00
			11.0		2.2771e+00		1.0000e+00
			11.05		2.2998e+00		1.0000e+00
			11.1		2.3225e+00		1.0000e+00
			11.15		2.3452e+00		1.0000e+00
			11.2		2.3679e+00		1.0000e+00
			11.25		2.3906e+00		1.0000e+00
			11.3		2.4133e+00		1.0000e+00
			11.35		2.4360e+00		1.0000e+00
			11.4		2.4588e+00		1.0000e+00
			11.45		2.4973e+00		1.0000e+00
			11.5		2.5358e+00		1.0000e+00
			11.55		2.5744e+00		1.0000e+00
			11.6		2.6129e+00		1.0000e+00
			11.65		2.6515e+00		1.0000e+00
			11.7		2.6901e+00		1.0000e+00
			11.75		2.7287e+00		1.0000e+00
			11.8		2.7672e+00		1.0000e+00
			11.85		2.8058e+00		1.0000e+00
			11.9		2.8444e+00		1.0000e+00
			11.95		2.8830e+00		1.0000e+00
			12.0		2.9216e+00		1.0000e+00
			12.05		2.9603e+00		1.0000e+00
			12.1		2.9989e+00		1.0000e+00
			12.15		3.0375e+00		1.0000e+00
			12.2		3.0762e+00		1.0000e+00
			12.25		3.1689e+00		1.0000e+00
			12.3		3.2616e+00		1.0000e+00
			12.35		3.3543e+00		1.0000e+00
			12.4		3.4470e+00		1.0000e+00
			12.45		3.5394e+00		1.0000e+00
			12.5		3.6318e+00		1.0000e+00
			12.55		3.7242e+00		1.0000e+00
			12.6		3.8167e+00		1.0000e+00
			12.65		4.1371e+00		1.0000e+00
			12.7		4.4576e+00		1.0000e+00
			12.75		4.7780e+00		1.0000e+00
			12.8		5.0985e+00		1.0000e+00
			12.85		6.5409e+00		1.0000e+00
			12.9		7.9833e+00		1.0000e+00
			12.95		9.4257e+00		1.0000e+00
			13.0		1.0868e+01		1.0000e+00
			13.05		1.2942e+01		1.0000e+00
			13.1		1.5017e+01		1.0000e+00
			13.15		1.7091e+01		1.0000e+00
			13.2		1.9165e+01		1.0000e+00
			13.25		1.9567e+01		1.0000e+00
			13.3		1.9968e+01		1.0000e+00
			13.35		2.0370e+01		1.0000e+00
			13.4		2.0771e+01		1.0000e+00
			13.45		1.9113e+01		1.0000e+00
			13.5		1.7455e+01		1.0000e+00
			13.55		1.5796e+01		1.0000e+00
			13.6		1.4138e+01		1.0000e+00
			13.65		1.2528e+01		1.0000e+00
			13.7		1.0918e+01		1.0000e+00
			13.75		9.3078e+00		1.0000e+00
			13.8		7.6978e+00		1.0000e+00
			13.85		7.5813e+00		1.0000e+00
			13.9		7.4648e+00		1.0000e+00
			13.95		7.3483e+00		1.0000e+00
			14.0		7.2318e+00		1.0000e+00
			14.05		8.6692e+00		1.0000e+00
			14.1		1.0107e+01		1.0000e+00
			14.15		1.1544e+01		1.0000e+00
			14.2		1.2981e+01		1.0000e+00
			14.25		1.4974e+01		1.0000e+00
			14.3		1.6966e+01		1.0000e+00
			14.35		1.8959e+01		1.0000e+00
			14.4		2.0951e+01		1.0000e+00
			14.45		2.1133e+01		1.0000e+00
			14.5		2.1314e+01		1.0000e+00
			14.55		2.1495e+01		1.0000e+00
			14.6		2.1677e+01		1.0000e+00
			14.65		1.9952e+01		1.0000e+00
			14.7		1.8227e+01		1.0000e+00
			14.75		1.6502e+01		1.0000e+00
			14.8		1.4777e+01		1.0000e+00
			14.85		1.3165e+01		1.0000e+00
			14.9		1.1553e+01		1.0000e+00
			14.95		9.9415e+00		1.0000e+00
			15.0		8.3295e+00		1.0000e+00
			15.05		8.2485e+00		1.0000e+00
			15.1		8.1675e+00		1.0000e+00
			15.15		8.0865e+00		1.0000e+00
			15.2		8.0054e+00		1.0000e+00
			15.25		9.4548e+00		1.0000e+00
			15.3		1.0904e+01		1.0000e+00
			15.35		1.2354e+01		1.0000e+00
			15.4		1.3803e+01		1.0000e+00
			15.45		1.5765e+01		1.0000e+00
			15.5		1.7727e+01		1.0000e+00
			15.55		1.9688e+01		1.0000e+00
			15.6		2.1650e+01		1.0000e+00
			15.65		2.1785e+01		1.0000e+00
			15.7		2.1920e+01		1.0000e+00
			15.75		2.2055e+01		1.0000e+00
			15.8		2.2190e+01		1.0000e+00
			15.85		2.0436e+01		1.0000e+00
			15.9		1.8681e+01		1.0000e+00
			15.95		1.6927e+01		1.0000e+00
			16.0		1.5173e+01		1.0000e+00
			16.05		1.3600e+01		1.0000e+00
			16.1		1.2027e+01		1.0000e+00
			16.15		1.0454e+01		1.0000e+00
			16.2		8.8810e+00		1.0000e+00
			16.25		8.8125e+00		1.0000e+00
			16.3		8.7440e+00		1.0000e+00
			16.35		8.6755e+00		1.0000e+00
			16.4		8.6070e+00		1.0000e+00
			16.45		1.0061e+01		1.0000e+00
			16.5		1.1516e+01		1.0000e+00
			16.55		1.2970e+01		1.0000e+00
			16.6		1.4425e+01		1.0000e+00
			16.65		1.6323e+01		1.0000e+00
			16.7		1.8222e+01		1.0000e+00
			16.75		2.0120e+01		1.0000e+00
			16.8		2.2019e+01		1.0000e+00
			16.85		2.2131e+01		1.0000e+00
			16.9		2.2244e+01		1.0000e+00
			16.95		2.2357e+01		1.0000e+00
			17.0		2.2469e+01		1.0000e+00
			17.05		2.0721e+01		1.0000e+00
			17.1		1.8973e+01		1.0000e+00
			17.15		1.7226e+01		1.0000e+00
			17.2		1.5478e+01		1.0000e+00
			17.25		1.3948e+01		1.0000e+00
			17.3		1.2417e+01		1.0000e+00
			17.35		1.0887e+01		1.0000e+00
			17.4		9.3570e+00		1.0000e+00
			17.45		9.2939e+00		1.0000e+00
			17.5		9.2308e+00		1.0000e+00
			17.55		9.1677e+00		1.0000e+00
			17.6		9.1046e+00		1.0000e+00
			17.65		1.0526e+01		1.0000e+00
			17.7		1.1948e+01		1.0000e+00
			17.75		1.3369e+01		1.0000e+00
			17.8		1.4791e+01		1.0000e+00
			17.85		1.6659e+01		1.0000e+00
			17.9		1.8528e+01		1.0000e+00
			17.95		2.0396e+01		1.0000e+00
			18.0		2.2264e+01		1.0000e+00
			18.05		2.2369e+01		1.0000e+00
			18.1		2.2473e+01		1.0000e+00
			18.15		2.2577e+01		1.0000e+00
			18.2		2.2682e+01		1.0000e+00
			18.25		2.0956e+01		1.0000e+00
			18.3		1.9230e+01		1.0000e+00
			18.35		1.7504e+01		1.0000e+00
			18.4		1.5778e+01		1.0000e+00
			18.45		1.4249e+01		1.0000e+00
			18.5		1.2721e+01		1.0000e+00
			18.55		1.1192e+01		1.0000e+00
			18.6		9.6640e+00		1.0000e+00
			18.65		9.5808e+00		1.0000e+00
			18.7		9.4976e+00		1.0000e+00
			18.75		9.4144e+00		1.0000e+00
			18.8		9.3312e+00		1.0000e+00
			18.85		1.0742e+01		1.0000e+00
			18.9		1.2154e+01		1.0000e+00
			18.95		1.3565e+01		1.0000e+00
			19.0		1.4976e+01		1.0000e+00
			19.05		1.6846e+01		1.0000e+00
			19.1		1.8716e+01		1.0000e+00
			19.15		2.0586e+01		1.0000e+00
			19.2		2.2457e+01		1.0000e+00
			19.25		2.2579e+01		1.0000e+00
			19.3		2.2701e+01		1.0000e+00
			19.35		2.2824e+01		1.0000e+00
			19.4		2.2946e+01		1.0000e+00
			19.45		2.1219e+01		1.0000e+00
			19.5		1.9491e+01		1.0000e+00
			19.55		1.7764e+01		1.0000e+00
			19.6		1.6036e+01		1.0000e+00
			19.65		1.4488e+01		1.0000e+00
			19.7		1.2940e+01		1.0000e+00
			19.75		1.1392e+01		1.0000e+00
			19.8		9.8435e+00		1.0000e+00
			19.85		9.7573e+00		1.0000e+00
			19.9		9.6710e+00		1.0000e+00
			19.95		9.5848e+00		1.0000e+00
			20.0		9.4985e+00		1.0000e+00
			20.05		1.0920e+01		1.0000e+00
			20.1		1.2342e+01		1.0000e+00
			20.15		1.3764e+01		1.0000e+00
			20.2		1.5185e+01		1.0000e+00
			20.25		1.7076e+01		1.0000e+00
			20.3		1.8967e+01		1.0000e+00
			20.35		2.0857e+01		1.0000e+00
			20.4		2.2748e+01		1.0000e+00
			20.45		2.2837e+01		1.0000e+00
			20.5		2.2926e+01		1.0000e+00
			20.55		2.3015e+01		1.0000e+00
			20.6		2.3104e+01		1.0000e+00
			20.65		2.1342e+01		1.0000e+00
			20.7		1.9580e+01		1.0000e+00
			20.75		1.7818e+01		1.0000e+00
			20.8		1.6056e+01		1.0000e+00
			20.85		1.4504e+01		1.0000e+00
			20.9		1.2952e+01		1.0000e+00
			20.95		1.1399e+01		1.0000e+00
			21.0		9.8471e+00		1.0000e+00
			21.05		9.7944e+00		1.0000e+00
			21.1		9.7417e+00		1.0000e+00
			21.15		9.6891e+00		1.0000e+00
			21.2		9.6364e+00		1.0000e+00
			21.25		1.1101e+01		1.0000e+00
			21.3		1.2565e+01		1.0000e+00
			21.35		1.4029e+01		1.0000e+00
			21.4		1.5493e+01		1.0000e+00
			21.45		1.7360e+01		1.0000e+00
			21.5		1.9227e+01		1.0000e+00
			21.55		2.1094e+01		1.0000e+00
			21.6		2.2961e+01		1.0000e+00
			21.65		2.3010e+01		1.0000e+00
			21.7		2.3060e+01		1.0000e+00
			21.75		2.3109e+01		1.0000e+00
			21.8		2.3159e+01		1.0000e+00
			21.85		2.1355e+01		1.0000e+00
			21.9		1.9551e+01		1.0000e+00
			21.95		1.7747e+01		1.0000e+00
			22.0		1.5943e+01		1.0000e+00
			22.05		1.4432e+01		1.0000e+00
			22.1		1.2920e+01		1.0000e+00
			22.15		1.1408e+01		1.0000e+00
			22.2		9.8956e+00		1.0000e+00
			22.25		9.8816e+00		1.0000e+00
			22.3		9.8677e+00		1.0000e+00
			22.35		9.8537e+00		1.0000e+00
			22.4		9.8398e+00		1.0000e+00
			22.45		1.1320e+01		1.0000e+00
			22.5		1.2800e+01		1.0000e+00
			22.55		1.4279e+01		1.0000e+00
			22.6		1.5759e+01		1.0000e+00
			22.65		1.7561e+01		1.0000e+00
			22.7		1.9363e+01		1.0000e+00
			22.75		2.1165e+01		1.0000e+00
			22.8		2.2967e+01		1.0000e+00
			22.85		2.2958e+01		1.0000e+00
			22.9		2.2948e+01		1.0000e+00
			22.95		2.2939e+01		1.0000e+00
			23.0		2.2930e+01		1.0000e+00
			23.05		2.1140e+01		1.0000e+00
			23.1		1.9350e+01		1.0000e+00
			23.15		1.7560e+01		1.0000e+00
			23.2		1.5770e+01		1.0000e+00
			23.25		1.4315e+01		1.0000e+00
			23.3		1.2861e+01		1.0000e+00
			23.35		1.1406e+01		1.0000e+00
			23.4		9.9514e+00		1.0000e+00
			23.45		9.9746e+00		1.0000e+00
			23.5		9.9978e+00		1.0000e+00
			23.55		1.0021e+01		1.0000e+00
			23.6		1.0044e+01		1.0000e+00
			23.65		1.1490e+01		1.0000e+00
			23.7		1.2936e+01		1.0000e+00
			23.75		1.4382e+01		1.0000e+00
			23.8		1.5828e+01		1.0000e+00
			23.85		1.7572e+01		1.0000e+00
			23.9		1.9316e+01		1.0000e+00
			23.95		2.1060e+01		1.0000e+00
			24.0		2.2804e+01		1.0000e+00
			24.05		2.2782e+01		1.0000e+00
			24.1		2.2760e+01		1.0000e+00
			24.15		2.2738e+01		1.0000e+00
			24.2		2.2715e+01		1.0000e+00
			24.25		2.0974e+01		1.0000e+00
			24.3		1.9233e+01		1.0000e+00
			24.35		1.7491e+01		1.0000e+00
			24.4		1.5750e+01		1.0000e+00
			24.45		1.4336e+01		1.0000e+00
			24.5		1.2923e+01		1.0000e+00
			24.55		1.1510e+01		1.0000e+00
			24.6		1.0097e+01		1.0000e+00
			24.65		1.0104e+01		1.0000e+00
			24.7		1.0111e+01		1.0000e+00
			24.75		1.0119e+01		1.0000e+00
			24.8		1.0126e+01		1.0000e+00
			24.85		1.1532e+01		1.0000e+00
			24.9		1.2939e+01		1.0000e+00
			24.95		1.4346e+01		1.0000e+00
			25.0		1.5752e+01		1.0000e+00
			25.05		1.7478e+01		1.0000e+00
			25.1		1.9203e+01		1.0000e+00
			25.15		2.0928e+01		1.0000e+00
			25.2		2.2654e+01		1.0000e+00
			25.25		2.2664e+01		1.0000e+00
			25.3		2.2674e+01		1.0000e+00
			25.35		2.2684e+01		1.0000e+00
			25.4		2.2695e+01		1.0000e+00
			25.45		2.0966e+01		1.0000e+00
			25.5		1.9236e+01		1.0000e+00
			25.55		1.7507e+01		1.0000e+00
			25.6		1.5778e+01		1.0000e+00
			25.65		1.4360e+01		1.0000e+00
			25.7		1.2941e+01		1.0000e+00
			25.75		1.1523e+01		1.0000e+00
			25.8		1.0104e+01		1.0000e+00
			25.85		1.0085e+01		1.0000e+00
			25.9		1.0066e+01		1.0000e+00
			25.95		1.0048e+01		1.0000e+00
			26.0		1.0029e+01		1.0000e+00
			26.05		1.1456e+01		1.0000e+00
			26.1		1.2884e+01		1.0000e+00
			26.15		1.4311e+01		1.0000e+00
			26.2		1.5738e+01		1.0000e+00
			26.25		1.7506e+01		1.0000e+00
			26.3		1.9274e+01		1.0000e+00
			26.35		2.1041e+01		1.0000e+00
			26.4		2.2809e+01		1.0000e+00
			26.45		2.2832e+01		1.0000e+00
			26.5		2.2855e+01		1.0000e+00
			26.55		2.2878e+01		1.0000e+00
			26.6		2.2901e+01		1.0000e+00
			26.65		2.1129e+01		1.0000e+00
			26.7		1.9358e+01		1.0000e+00
			26.75		1.7586e+01		1.0000e+00
			26.8		1.5815e+01		1.0000e+00
			26.85		1.4346e+01		1.0000e+00
			26.9		1.2878e+01		1.0000e+00
			26.95		1.1410e+01		1.0000e+00
			27.0		9.9417e+00		1.0000e+00
			27.05		9.9327e+00		1.0000e+00
			27.1		9.9238e+00		1.0000e+00
			27.15		9.9148e+00		1.0000e+00
			27.2		9.9058e+00		1.0000e+00
			27.25		1.1386e+01		1.0000e+00
			27.3		1.2866e+01		1.0000e+00
			27.35		1.4346e+01		1.0000e+00
			27.4		1.5825e+01		1.0000e+00
			27.45		1.7625e+01		1.0000e+00
			27.5		1.9425e+01		1.0000e+00
			27.55		2.1225e+01		1.0000e+00
			27.6		2.3025e+01		1.0000e+00
			27.65		2.3006e+01		1.0000e+00
			27.7		2.2988e+01		1.0000e+00
			27.75		2.2969e+01		1.0000e+00
			27.8		2.2950e+01		1.0000e+00
			27.85		2.1115e+01		1.0000e+00
			27.9		1.9280e+01		1.0000e+00
			27.95		1.7445e+01		1.0000e+00
			28.0		1.5609e+01		1.0000e+00
			28.05		1.4130e+01		1.0000e+00
			28.1		1.2650e+01		1.0000e+00
			28.15		1.1171e+01		1.0000e+00
			28.2		9.6909e+00		1.0000e+00
			28.25		9.7287e+00		1.0000e+00
			28.3		9.7666e+00		1.0000e+00
			28.35		9.8044e+00		1.0000e+00
			28.4		9.8422e+00		1.0000e+00
			28.45		1.1379e+01		1.0000e+00
			28.5		1.2915e+01		1.0000e+00
			28.55		1.4452e+01		1.0000e+00
			28.6		1.5988e+01		1.0000e+00
			28.65		1.7772e+01		1.0000e+00
			28.7		1.9557e+01		1.0000e+00
			28.75		2.1341e+01		1.0000e+00
			28.8		2.3125e+01		1.0000e+00
			28.85		2.3052e+01		1.0000e+00
			28.9		2.2979e+01		1.0000e+00
			28.95		2.2906e+01		1.0000e+00
			29.0		2.2832e+01		1.0000e+00
			29.05		2.0941e+01		1.0000e+00
			29.1		1.9050e+01		1.0000e+00
			29.15		1.7159e+01		1.0000e+00
			29.2		1.5268e+01		1.0000e+00
			29.25		1.3827e+01		1.0000e+00
			29.3		1.2385e+01		1.0000e+00
			29.35		1.0943e+01		1.0000e+00
			29.4		9.5018e+00		1.0000e+00
			29.45		9.5708e+00		1.0000e+00
			29.5		9.6398e+00		1.0000e+00
			29.55		9.7088e+00		1.0000e+00
			29.6		9.7777e+00		1.0000e+00
			29.65		1.1333e+01		1.0000e+00
			29.7		1.2889e+01		1.0000e+00
			29.75		1.4444e+01		1.0000e+00
			29.8		1.5999e+01		1.0000e+00
			29.85		1.7741e+01		1.0000e+00
			29.9		1.9483e+01		1.0000e+00
			29.95		2.1225e+01		1.0000e+00
			30.0		2.2966e+01		1.0000e+00
			30.05		2.2854e+01		1.0000e+00
			30.1		2.2742e+01		1.0000e+00
			30.15		2.2629e+01		1.0000e+00
			30.2		2.2517e+01		1.0000e+00
			30.25		2.0635e+01		1.0000e+00
			30.3		1.8753e+01		1.0000e+00
			30.35		1.6871e+01		1.0000e+00
			30.4		1.4989e+01		1.0000e+00
			30.45		1.3580e+01		1.0000e+00
			30.5		1.2170e+01		1.0000e+00
			30.55		1.0761e+01		1.0000e+00
			30.6		9.3511e+00		1.0000e+00
			30.65		9.4399e+00		1.0000e+00
			30.7		9.5286e+00		1.0000e+00
			30.75		9.6174e+00		1.0000e+00
			30.8		9.7062e+00		1.0000e+00
			30.85		1.1242e+01		1.0000e+00
			30.9		1.2778e+01		1.0000e+00
			30.95		1.4313e+01		1.0000e+00
			31.0		1.5849e+01		1.0000e+00
			31.05		1.7571e+01		1.0000e+00
			31.1		1.9293e+01		1.0000e+00
			31.15		2.1016e+01		1.0000e+00
			31.2		2.2738e+01		1.0000e+00
			31.25		2.2624e+01		1.0000e+00
			31.3		2.2510e+01		1.0000e+00
			31.35		2.2396e+01		1.0000e+00
			31.4		2.2282e+01		1.0000e+00
			31.45		2.0412e+01		1.0000e+00
			31.5		1.8541e+01		1.0000e+00
			31.55		1.6671e+01		1.0000e+00
			31.6		1.4801e+01		1.0000e+00
			31.65		1.3388e+01		1.0000e+00
			31.7		1.1975e+01		1.0000e+00
			31.75		1.0561e+01		1.0000e+00
			31.8		9.1483e+00		1.0000e+00
			31.85		9.2141e+00		1.0000e+00
			31.9		9.2798e+00		1.0000e+00
			31.95		9.3456e+00		1.0000e+00
			32.0		9.4113e+00		1.0000e+00
			32.05		1.0937e+01		1.0000e+00
			32.1		1.2462e+01		1.0000e+00
			32.15		1.3987e+01		1.0000e+00
			32.2		1.5512e+01		1.0000e+00
			32.25		1.7239e+01		1.0000e+00
			32.3		1.8966e+01		1.0000e+00
			32.35		2.0693e+01		1.0000e+00
			32.4		2.2420e+01		1.0000e+00
			32.45		2.2319e+01		1.0000e+00
			32.5		2.2218e+01		1.0000e+00
			32.55		2.2116e+01		1.0000e+00
			32.6		2.2015e+01		1.0000e+00
			32.65		2.0136e+01		1.0000e+00
			32.7		1.8258e+01		1.0000e+00
			32.75		1.6379e+01		1.0000e+00
			32.8		1.4500e+01		1.0000e+00
			32.85		1.3062e+01		1.0000e+00
			32.9		1.1625e+01		1.0000e+00
			32.95		1.0187e+01		1.0000e+00
			33.0		8.7489e+00		1.0000e+00
			33.05		8.8159e+00		1.0000e+00
			33.1		8.8829e+00		1.0000e+00
			33.15		8.9499e+00		1.0000e+00
			33.2		9.0169e+00		1.0000e+00
			33.25		1.0559e+01		1.0000e+00
			33.3		1.2102e+01		1.0000e+00
			33.35		1.3644e+01		1.0000e+00
			33.4		1.5187e+01		1.0000e+00
			33.45		1.6943e+01		1.0000e+00
			33.5		1.8699e+01		1.0000e+00
			33.55		2.0455e+01		1.0000e+00
			33.6		2.2211e+01		1.0000e+00
			33.65		2.2079e+01		1.0000e+00
			33.7		2.1946e+01		1.0000e+00
			33.75		2.1814e+01		1.0000e+00
			33.8		2.1681e+01		1.0000e+00
			33.85		1.9749e+01		1.0000e+00
			33.9		1.7817e+01		1.0000e+00
			33.95		1.5885e+01		1.0000e+00
			34.0		1.3953e+01		1.0000e+00
			34.05		1.2492e+01		1.0000e+00
			34.1		1.1031e+01		1.0000e+00
			34.15		9.5708e+00		1.0000e+00
			34.2		8.1101e+00		1.0000e+00
			34.25		8.1768e+00		1.0000e+00
			34.3		8.2436e+00		1.0000e+00
			34.35		8.3103e+00		1.0000e+00
			34.4		8.3771e+00		1.0000e+00
			34.45		9.9704e+00		1.0000e+00
			34.5		1.1564e+01		1.0000e+00
			34.55		1.3157e+01		1.0000e+00
			34.6		1.4750e+01		1.0000e+00
			34.65		1.6485e+01		1.0000e+00
			34.7		1.8219e+01		1.0000e+00
			34.75		1.9953e+01		1.0000e+00
			34.8		2.1687e+01		1.0000e+00
			34.85		2.1530e+01		1.0000e+00
			34.9		2.1372e+01		1.0000e+00
			34.95		2.1215e+01		1.0000e+00
			35.0		2.1057e+01		1.0000e+00
			35.05		1.9082e+01		1.0000e+00
			35.1		1.7107e+01		1.0000e+00
			35.15		1.5132e+01		1.0000e+00
			35.2		1.3156e+01		1.0000e+00
			35.25		1.1715e+01		1.0000e+00
			35.3		1.0274e+01		1.0000e+00
			35.35		8.8323e+00		1.0000e+00
			35.4		7.3910e+00		1.0000e+00
			35.45		7.4907e+00		1.0000e+00
			35.5		7.5904e+00		1.0000e+00
			35.55		7.6901e+00		1.0000e+00
			35.6		7.7899e+00		1.0000e+00
			35.65		9.4036e+00		1.0000e+00
			35.7		1.1017e+01		1.0000e+00
			35.75		1.2631e+01		1.0000e+00
			35.8		1.4245e+01		1.0000e+00
			35.85		1.5953e+01		1.0000e+00
			35.9		1.7661e+01		1.0000e+00
			35.95		1.9369e+01		1.0000e+00
			36.0		2.1077e+01		1.0000e+00
			36.05		2.0841e+01		1.0000e+00
			36.1		2.0605e+01		1.0000e+00
			36.15		2.0369e+01		1.0000e+00
			36.2		2.0132e+01		1.0000e+00
			36.25		1.8076e+01		1.0000e+00
			36.3		1.6019e+01		1.0000e+00
			36.35		1.3962e+01		1.0000e+00
			36.4		1.1905e+01		1.0000e+00
			36.45		1.0326e+01		1.0000e+00
			36.5		8.7459e+00		1.0000e+00
			36.55		7.1662e+00		1.0000e+00
			36.6		5.5866e+00		1.0000e+00
			36.65		5.2315e+00		1.0000e+00
			36.7		4.8765e+00		1.0000e+00
			36.75		4.5214e+00		1.0000e+00
			36.8		4.1664e+00		1.0000e+00
			36.85		4.0072e+00		1.0000e+00
			36.9		3.8481e+00		1.0000e+00
			36.95		3.6890e+00		1.0000e+00
			37.0		3.5298e+00		1.0000e+00
			37.05		3.4723e+00		1.0000e+00
			37.1		3.4148e+00		1.0000e+00
			37.15		3.3573e+00		1.0000e+00
			37.2		3.2998e+00		1.0000e+00
			37.25		3.2423e+00		1.0000e+00
			37.3		3.1848e+00		1.0000e+00
			37.35		3.1273e+00		1.0000e+00
			37.4		3.0698e+00		1.0000e+00
			37.45		3.0124e+00		1.0000e+00
			37.5		2.9549e+00		1.0000e+00
			37.55		2.8975e+00		1.0000e+00
			37.6		2.8400e+00		1.0000e+00
			37.65		2.7826e+00		1.0000e+00
			37.7		2.7252e+00		1.0000e+00
			37.75		2.6678e+00		1.0000e+00
			37.8		2.6104e+00		1.0000e+00
			37.85		2.5862e+00		1.0000e+00
			37.9		2.5620e+00		1.0000e+00
			37.95		2.5378e+00		1.0000e+00
			38.0		2.5137e+00		1.0000e+00
			38.05		2.4895e+00		1.0000e+00
			38.1		2.4654e+00		1.0000e+00
			38.15		2.4412e+00		1.0000e+00
			38.2		2.4170e+00		1.0000e+00
			38.25		2.3929e+00		1.0000e+00
			38.3		2.3687e+00		1.0000e+00
			38.35		2.3446e+00		1.0000e+00
			38.4		2.3205e+00		1.0000e+00
			38.45		2.2963e+00		1.0000e+00
			38.5		2.2722e+00		1.0000e+00
			38.55		2.2481e+00		1.0000e+00
			38.6		2.2239e+00		1.0000e+00
			38.65		2.2016e+00		1.0000e+00
			38.7		2.1792e+00		1.0000e+00
			38.75		2.1568e+00		1.0000e+00
			38.8		2.1345e+00		1.0000e+00
			38.85		2.1121e+00		1.0000e+00
			38.9		2.0897e+00		1.0000e+00
			38.95		2.0674e+00		1.0000e+00
			39.0		2.0450e+00		1.0000e+00
			39.05		2.0227e+00		1.0000e+00
			39.1		2.0004e+00		1.0000e+00
			39.15		1.9780e+00		1.0000e+00
			39.2		1.9557e+00		1.0000e+00
			39.25		1.9333e+00		1.0000e+00
			39.3		1.9110e+00		1.0000e+00
			39.35		1.8887e+00		1.0000e+00
			39.4		1.8664e+00		1.0000e+00
			39.45		1.8408e+00		1.0000e+00
			39.5		1.8152e+00		1.0000e+00
			39.55		1.7896e+00		1.0000e+00
			39.6		1.7640e+00		1.0000e+00
			39.65		1.7384e+00		1.0000e+00
