BEGIN_SCAN_DATA
	FORMAT=CC-Export V1.9                  
	FILE_CREATION_DATE=
	LAST_MODIFIED=11-Jan-2023 10:50:22
	BEGIN_SCAN  1
		TASK_NAME=RayStation Phantom Profiles & PDDs
		PROGRAM=RayStation
		COMMENT=RayStation Script Export
		MEAS_DATE=11-Jan-2023 10:50:22
		LINAC=RayStation
		MODALITY=X
		ISOCENTER=1000.00
		INPLANE_AXIS=Y
		CROSSPLANE_AXIS=X
		DEPTH_AXIS=Z
		INPLANE_AXIS_DIR=GUN_TARGET
		CROSSPLANE_AXIS_DIR=LEFT_RIGHT
		DEPTH_AXIS_DIR=UP_DOWN
		ENERGY=6.3
		NOMINAL_DMAX=20.00
		SSD=1000.0
		SCD=1000.00
		WEDGE_ANGLE=0.00
		FIELD_INPLANE=200.0
		FIELD_CROSSPLANE=200.0
		FIELD_TYPE=IRREGULAR
		GANTRY=0.00
		GANTRY_UPRIGHT_POSITION=0
		GANTRY_ROTATION=CW
		COLL_ANGLE=0.00
		REF_FIELD_DEPTH=50.00
		REF_FIELD_DEFINED=ISOCENTER
		FIELD_INPLANE=200.0
		FIELD_CROSSPLANE=200.0
		SCAN_CURVETYPE=INPLANE_PROFILE
		SCAN_DEPTH=100.0
		SCAN_OFFAXIS_INPLANE=0.00
		SCAN_OFFAXIS_CROSSPLANE=0.00
		SCAN_ANGLE=0.00
		SCAN_DIAGONAL=NOT_DIAGONAL
		SCAN_DIRECTION=NEGATIVE
		MEAS_MEDIUM=WATER
		MEAS_UNIT=cGy
		INCLINATION_ANGLE=0.00
		PRESSURE=1013.20
		TEMPERATURE=20.00
		NORM_TEMPERATURE=20.00
		CORRECTION_FACTOR=1.0000;
		BEGIN_DATA
			-5.0		3.8514e-03		1.0000e+00
			-4.95		3.9153e-03		1.0000e+00
			-4.9		3.9792e-03		1.0000e+00
			-4.85		4.0430e-03		1.0000e+00
			-4.8		4.1069e-03		1.0000e+00
			-4.75		4.1425e-03		1.0000e+00
			-4.7		4.1782e-03		1.0000e+00
			-4.65		4.2138e-03		1.0000e+00
			-4.6		4.2495e-03		1.0000e+00
			-4.55		4.3199e-03		1.0000e+00
			-4.5		4.3902e-03		1.0000e+00
			-4.45		4.4606e-03		1.0000e+00
			-4.4		4.5310e-03		1.0000e+00
			-4.35		4.5857e-03		1.0000e+00
			-4.3		4.6404e-03		1.0000e+00
			-4.25		4.6951e-03		1.0000e+00
			-4.2		4.7498e-03		1.0000e+00
			-4.15		4.8166e-03		1.0000e+00
			-4.1		4.8834e-03		1.0000e+00
			-4.05		4.9502e-03		1.0000e+00
			-4.0		5.0171e-03		1.0000e+00
			-3.95		5.1009e-03		1.0000e+00
			-3.9		5.1848e-03		1.0000e+00
			-3.85		5.2687e-03		1.0000e+00
			-3.8		5.3526e-03		1.0000e+00
			-3.75		5.4121e-03		1.0000e+00
			-3.7		5.4716e-03		1.0000e+00
			-3.65		5.5312e-03		1.0000e+00
			-3.6		5.5907e-03		1.0000e+00
			-3.55		5.7104e-03		1.0000e+00
			-3.5		5.8302e-03		1.0000e+00
			-3.45		5.9499e-03		1.0000e+00
			-3.4		6.0696e-03		1.0000e+00
			-3.35		6.1248e-03		1.0000e+00
			-3.3		6.1800e-03		1.0000e+00
			-3.25		6.2352e-03		1.0000e+00
			-3.2		6.2903e-03		1.0000e+00
			-3.15		6.4512e-03		1.0000e+00
			-3.1		6.6120e-03		1.0000e+00
			-3.05		6.7728e-03		1.0000e+00
			-3.0		6.9336e-03		1.0000e+00
			-2.95		6.9871e-03		1.0000e+00
			-2.9		7.0405e-03		1.0000e+00
			-2.85		7.0939e-03		1.0000e+00
			-2.8		7.1474e-03		1.0000e+00
			-2.75		7.3626e-03		1.0000e+00
			-2.7		7.5779e-03		1.0000e+00
			-2.65		7.7931e-03		1.0000e+00
			-2.6		8.0084e-03		1.0000e+00
			-2.55		8.0533e-03		1.0000e+00
			-2.5		8.0982e-03		1.0000e+00
			-2.45		8.1432e-03		1.0000e+00
			-2.4		8.1881e-03		1.0000e+00
			-2.35		8.4598e-03		1.0000e+00
			-2.3		8.7316e-03		1.0000e+00
			-2.25		9.0033e-03		1.0000e+00
			-2.2		9.2751e-03		1.0000e+00
			-2.15		9.3158e-03		1.0000e+00
			-2.1		9.3565e-03		1.0000e+00
			-2.05		9.3973e-03		1.0000e+00
			-2.0		9.4380e-03		1.0000e+00
			-1.95		9.7615e-03		1.0000e+00
			-1.9		1.0085e-02		1.0000e+00
			-1.85		1.0408e-02		1.0000e+00
			-1.8		1.0732e-02		1.0000e+00
			-1.75		1.0786e-02		1.0000e+00
			-1.7		1.0841e-02		1.0000e+00
			-1.65		1.0895e-02		1.0000e+00
			-1.6		1.0950e-02		1.0000e+00
			-1.55		1.1315e-02		1.0000e+00
			-1.5		1.1681e-02		1.0000e+00
			-1.45		1.2047e-02		1.0000e+00
			-1.4		1.2413e-02		1.0000e+00
			-1.35		1.2501e-02		1.0000e+00
			-1.3		1.2590e-02		1.0000e+00
			-1.25		1.2679e-02		1.0000e+00
			-1.2		1.2767e-02		1.0000e+00
			-1.15		1.3169e-02		1.0000e+00
			-1.1		1.3571e-02		1.0000e+00
			-1.05		1.3973e-02		1.0000e+00
			-1.0		1.4374e-02		1.0000e+00
			-0.95		1.4517e-02		1.0000e+00
			-0.9		1.4660e-02		1.0000e+00
			-0.85		1.4803e-02		1.0000e+00
			-0.8		1.4946e-02		1.0000e+00
			-0.75		1.5373e-02		1.0000e+00
			-0.7		1.5801e-02		1.0000e+00
			-0.65		1.6229e-02		1.0000e+00
			-0.6		1.6656e-02		1.0000e+00
			-0.55		1.6879e-02		1.0000e+00
			-0.5		1.7101e-02		1.0000e+00
			-0.45		1.7324e-02		1.0000e+00
			-0.4		1.7546e-02		1.0000e+00
			-0.35		1.7971e-02		1.0000e+00
			-0.3		1.8397e-02		1.0000e+00
			-0.25		1.8822e-02		1.0000e+00
			-0.2		1.9248e-02		1.0000e+00
			-0.15		1.9588e-02		1.0000e+00
			-0.1		1.9928e-02		1.0000e+00
			-0.05		2.0269e-02		1.0000e+00
			-0.0		2.0609e-02		1.0000e+00
			0.05		2.0997e-02		1.0000e+00
			0.1		2.1384e-02		1.0000e+00
			0.15		2.1771e-02		1.0000e+00
			0.2		2.2158e-02		1.0000e+00
			0.25		2.2669e-02		1.0000e+00
			0.3		2.3181e-02		1.0000e+00
			0.35		2.3692e-02		1.0000e+00
			0.4		2.4203e-02		1.0000e+00
			0.45		2.4538e-02		1.0000e+00
			0.5		2.4873e-02		1.0000e+00
			0.55		2.5209e-02		1.0000e+00
			0.6		2.5544e-02		1.0000e+00
			0.65		2.6245e-02		1.0000e+00
			0.7		2.6946e-02		1.0000e+00
			0.75		2.7647e-02		1.0000e+00
			0.8		2.8348e-02		1.0000e+00
			0.85		2.8645e-02		1.0000e+00
			0.9		2.8943e-02		1.0000e+00
			0.95		2.9240e-02		1.0000e+00
			1.0		2.9538e-02		1.0000e+00
			1.05		3.0437e-02		1.0000e+00
			1.1		3.1336e-02		1.0000e+00
			1.15		3.2235e-02		1.0000e+00
			1.2		3.3134e-02		1.0000e+00
			1.25		3.3385e-02		1.0000e+00
			1.3		3.3635e-02		1.0000e+00
			1.35		3.3885e-02		1.0000e+00
			1.4		3.4136e-02		1.0000e+00
			1.45		3.5247e-02		1.0000e+00
			1.5		3.6359e-02		1.0000e+00
			1.55		3.7470e-02		1.0000e+00
			1.6		3.8582e-02		1.0000e+00
			1.65		3.8770e-02		1.0000e+00
			1.7		3.8959e-02		1.0000e+00
			1.75		3.9148e-02		1.0000e+00
			1.8		3.9337e-02		1.0000e+00
			1.85		4.0680e-02		1.0000e+00
			1.9		4.2022e-02		1.0000e+00
			1.95		4.3365e-02		1.0000e+00
			2.0		4.4707e-02		1.0000e+00
			2.05		4.4867e-02		1.0000e+00
			2.1		4.5028e-02		1.0000e+00
			2.15		4.5188e-02		1.0000e+00
			2.2		4.5348e-02		1.0000e+00
			2.25		4.6850e-02		1.0000e+00
			2.3		4.8352e-02		1.0000e+00
			2.35		4.9854e-02		1.0000e+00
			2.4		5.1357e-02		1.0000e+00
			2.45		5.1583e-02		1.0000e+00
			2.5		5.1810e-02		1.0000e+00
			2.55		5.2037e-02		1.0000e+00
			2.6		5.2263e-02		1.0000e+00
			2.65		5.3876e-02		1.0000e+00
			2.7		5.5489e-02		1.0000e+00
			2.75		5.7102e-02		1.0000e+00
			2.8		5.8714e-02		1.0000e+00
			2.85		5.9117e-02		1.0000e+00
			2.9		5.9519e-02		1.0000e+00
			2.95		5.9922e-02		1.0000e+00
			3.0		6.0324e-02		1.0000e+00
			3.05		6.1960e-02		1.0000e+00
			3.1		6.3595e-02		1.0000e+00
			3.15		6.5231e-02		1.0000e+00
			3.2		6.6866e-02		1.0000e+00
			3.25		6.7460e-02		1.0000e+00
			3.3		6.8055e-02		1.0000e+00
			3.35		6.8649e-02		1.0000e+00
			3.4		6.9243e-02		1.0000e+00
			3.45		7.0865e-02		1.0000e+00
			3.5		7.2487e-02		1.0000e+00
			3.55		7.4110e-02		1.0000e+00
			3.6		7.5732e-02		1.0000e+00
			3.65		7.6589e-02		1.0000e+00
			3.7		7.7446e-02		1.0000e+00
			3.75		7.8302e-02		1.0000e+00
			3.8		7.9159e-02		1.0000e+00
			3.85		8.0655e-02		1.0000e+00
			3.9		8.2151e-02		1.0000e+00
			3.95		8.3646e-02		1.0000e+00
			4.0		8.5142e-02		1.0000e+00
			4.05		8.6376e-02		1.0000e+00
			4.1		8.7610e-02		1.0000e+00
			4.15		8.8844e-02		1.0000e+00
			4.2		9.0077e-02		1.0000e+00
			4.25		9.1332e-02		1.0000e+00
			4.3		9.2586e-02		1.0000e+00
			4.35		9.3841e-02		1.0000e+00
			4.4		9.5095e-02		1.0000e+00
			4.45		9.6852e-02		1.0000e+00
			4.5		9.8609e-02		1.0000e+00
			4.55		1.0037e-01		1.0000e+00
			4.6		1.0212e-01		1.0000e+00
			4.65		1.0313e-01		1.0000e+00
			4.7		1.0415e-01		1.0000e+00
			4.75		1.0516e-01		1.0000e+00
			4.8		1.0617e-01		1.0000e+00
			4.85		1.0840e-01		1.0000e+00
			4.9		1.1063e-01		1.0000e+00
			4.95		1.1286e-01		1.0000e+00
			5.0		1.1509e-01		1.0000e+00
			5.05		1.1594e-01		1.0000e+00
			5.1		1.1678e-01		1.0000e+00
			5.15		1.1763e-01		1.0000e+00
			5.2		1.1848e-01		1.0000e+00
			5.25		1.0984e-01		1.0000e+00
			5.3		1.0120e-01		1.0000e+00
			5.35		9.2560e-02		1.0000e+00
			5.4		8.3919e-02		1.0000e+00
			5.45		8.0016e-02		1.0000e+00
			5.5		7.6112e-02		1.0000e+00
			5.55		7.2208e-02		1.0000e+00
			5.6		6.8305e-02		1.0000e+00
			5.65		6.4399e-02		1.0000e+00
			5.7		6.0493e-02		1.0000e+00
			5.75		5.6587e-02		1.0000e+00
			5.8		5.2681e-02		1.0000e+00
			5.85		8.8637e-02		1.0000e+00
			5.9		1.2459e-01		1.0000e+00
			5.95		1.6055e-01		1.0000e+00
			6.0		1.9651e-01		1.0000e+00
			6.05		2.3249e-01		1.0000e+00
			6.1		2.6848e-01		1.0000e+00
			6.15		3.0446e-01		1.0000e+00
			6.2		3.4045e-01		1.0000e+00
			6.25		3.7646e-01		1.0000e+00
			6.3		4.1247e-01		1.0000e+00
			6.35		4.4848e-01		1.0000e+00
			6.4		4.8449e-01		1.0000e+00
			6.45		5.2053e-01		1.0000e+00
			6.5		5.5656e-01		1.0000e+00
			6.55		5.9260e-01		1.0000e+00
			6.6		6.2864e-01		1.0000e+00
			6.65		6.3356e-01		1.0000e+00
			6.7		6.3849e-01		1.0000e+00
			6.75		6.4341e-01		1.0000e+00
			6.8		6.4833e-01		1.0000e+00
			6.85		6.5326e-01		1.0000e+00
			6.9		6.5819e-01		1.0000e+00
			6.95		6.6312e-01		1.0000e+00
			7.0		6.6804e-01		1.0000e+00
			7.05		6.7297e-01		1.0000e+00
			7.1		6.7790e-01		1.0000e+00
			7.15		6.8283e-01		1.0000e+00
			7.2		6.8776e-01		1.0000e+00
			7.25		6.9270e-01		1.0000e+00
			7.3		6.9763e-01		1.0000e+00
			7.35		7.0256e-01		1.0000e+00
			7.4		7.0750e-01		1.0000e+00
			7.45		7.1283e-01		1.0000e+00
			7.5		7.1817e-01		1.0000e+00
			7.55		7.2351e-01		1.0000e+00
			7.6		7.2885e-01		1.0000e+00
			7.65		7.3419e-01		1.0000e+00
			7.7		7.3953e-01		1.0000e+00
			7.75		7.4487e-01		1.0000e+00
			7.8		7.5022e-01		1.0000e+00
			7.85		7.5556e-01		1.0000e+00
			7.9		7.6090e-01		1.0000e+00
			7.95		7.6625e-01		1.0000e+00
			8.0		7.7159e-01		1.0000e+00
			8.05		7.7694e-01		1.0000e+00
			8.1		7.8229e-01		1.0000e+00
			8.15		7.8763e-01		1.0000e+00
			8.2		7.9298e-01		1.0000e+00
			8.25		7.9985e-01		1.0000e+00
			8.3		8.0673e-01		1.0000e+00
			8.35		8.1360e-01		1.0000e+00
			8.4		8.2047e-01		1.0000e+00
			8.45		8.2735e-01		1.0000e+00
			8.5		8.3422e-01		1.0000e+00
			8.55		8.4110e-01		1.0000e+00
			8.6		8.4797e-01		1.0000e+00
			8.65		8.5485e-01		1.0000e+00
			8.7		8.6173e-01		1.0000e+00
			8.75		8.6861e-01		1.0000e+00
			8.8		8.7549e-01		1.0000e+00
			8.85		8.8238e-01		1.0000e+00
			8.9		8.8926e-01		1.0000e+00
			8.95		8.9614e-01		1.0000e+00
			9.0		9.0303e-01		1.0000e+00
			9.05		9.1481e-01		1.0000e+00
			9.1		9.2659e-01		1.0000e+00
			9.15		9.3838e-01		1.0000e+00
			9.2		9.5016e-01		1.0000e+00
			9.25		9.6195e-01		1.0000e+00
			9.3		9.7374e-01		1.0000e+00
			9.35		9.8553e-01		1.0000e+00
			9.4		9.9732e-01		1.0000e+00
			9.45		1.0091e+00		1.0000e+00
			9.5		1.0209e+00		1.0000e+00
			9.55		1.0327e+00		1.0000e+00
			9.6		1.0445e+00		1.0000e+00
			9.65		1.0563e+00		1.0000e+00
			9.7		1.0681e+00		1.0000e+00
			9.75		1.0799e+00		1.0000e+00
			9.8		1.0917e+00		1.0000e+00
			9.85		1.1134e+00		1.0000e+00
			9.9		1.1350e+00		1.0000e+00
			9.95		1.1566e+00		1.0000e+00
			10.0		1.1783e+00		1.0000e+00
			10.05		1.1999e+00		1.0000e+00
			10.1		1.2216e+00		1.0000e+00
			10.15		1.2432e+00		1.0000e+00
			10.2		1.2649e+00		1.0000e+00
			10.25		1.2865e+00		1.0000e+00
			10.3		1.3082e+00		1.0000e+00
			10.35		1.3299e+00		1.0000e+00
			10.4		1.3515e+00		1.0000e+00
			10.45		1.3732e+00		1.0000e+00
			10.5		1.3948e+00		1.0000e+00
			10.55		1.4165e+00		1.0000e+00
			10.6		1.4382e+00		1.0000e+00
			10.65		1.5386e+00		1.0000e+00
			10.7		1.6390e+00		1.0000e+00
			10.75		1.7395e+00		1.0000e+00
			10.8		1.8399e+00		1.0000e+00
			10.85		2.2724e+00		1.0000e+00
			10.9		2.7048e+00		1.0000e+00
			10.95		3.1373e+00		1.0000e+00
			11.0		3.5697e+00		1.0000e+00
			11.05		4.1510e+00		1.0000e+00
			11.1		4.7322e+00		1.0000e+00
			11.15		5.3134e+00		1.0000e+00
			11.2		5.8946e+00		1.0000e+00
			11.25		6.0985e+00		1.0000e+00
			11.3		6.3024e+00		1.0000e+00
			11.35		6.5063e+00		1.0000e+00
			11.4		6.7102e+00		1.0000e+00
			11.45		6.4891e+00		1.0000e+00
			11.5		6.2681e+00		1.0000e+00
			11.55		6.0470e+00		1.0000e+00
			11.6		5.8260e+00		1.0000e+00
			11.65		5.2193e+00		1.0000e+00
			11.7		4.6126e+00		1.0000e+00
			11.75		4.0059e+00		1.0000e+00
			11.8		3.3991e+00		1.0000e+00
			11.85		3.1686e+00		1.0000e+00
			11.9		2.9380e+00		1.0000e+00
			11.95		2.7074e+00		1.0000e+00
			12.0		2.4769e+00		1.0000e+00
			12.05		2.5159e+00		1.0000e+00
			12.1		2.5549e+00		1.0000e+00
			12.15		2.5940e+00		1.0000e+00
			12.2		2.6330e+00		1.0000e+00
			12.25		3.0665e+00		1.0000e+00
			12.3		3.4999e+00		1.0000e+00
			12.35		3.9334e+00		1.0000e+00
			12.4		4.3669e+00		1.0000e+00
			12.45		4.9147e+00		1.0000e+00
			12.5		5.4624e+00		1.0000e+00
			12.55		6.0102e+00		1.0000e+00
			12.6		6.5580e+00		1.0000e+00
			12.65		6.6871e+00		1.0000e+00
			12.7		6.8162e+00		1.0000e+00
			12.75		6.9454e+00		1.0000e+00
			12.8		7.0745e+00		1.0000e+00
			12.85		6.8245e+00		1.0000e+00
			12.9		6.5745e+00		1.0000e+00
			12.95		6.3245e+00		1.0000e+00
			13.0		6.0745e+00		1.0000e+00
			13.05		5.4705e+00		1.0000e+00
			13.1		4.8665e+00		1.0000e+00
			13.15		4.2625e+00		1.0000e+00
			13.2		3.6585e+00		1.0000e+00
			13.25		3.4460e+00		1.0000e+00
			13.3		3.2334e+00		1.0000e+00
			13.35		3.0209e+00		1.0000e+00
			13.4		2.8084e+00		1.0000e+00
			13.45		2.8556e+00		1.0000e+00
			13.5		2.9028e+00		1.0000e+00
			13.55		2.9499e+00		1.0000e+00
			13.6		2.9971e+00		1.0000e+00
			13.65		3.4123e+00		1.0000e+00
			13.7		3.8275e+00		1.0000e+00
			13.75		4.2428e+00		1.0000e+00
			13.8		4.6580e+00		1.0000e+00
			13.85		5.1956e+00		1.0000e+00
			13.9		5.7333e+00		1.0000e+00
			13.95		6.2710e+00		1.0000e+00
			14.0		6.8087e+00		1.0000e+00
			14.05		6.9337e+00		1.0000e+00
			14.1		7.0587e+00		1.0000e+00
			14.15		7.1838e+00		1.0000e+00
			14.2		7.3088e+00		1.0000e+00
			14.25		7.0631e+00		1.0000e+00
			14.3		6.8174e+00		1.0000e+00
			14.35		6.5716e+00		1.0000e+00
			14.4		6.3259e+00		1.0000e+00
			14.45		5.7184e+00		1.0000e+00
			14.5		5.1109e+00		1.0000e+00
			14.55		4.5034e+00		1.0000e+00
			14.6		3.8958e+00		1.0000e+00
			14.65		3.6713e+00		1.0000e+00
			14.7		3.4467e+00		1.0000e+00
			14.75		3.2221e+00		1.0000e+00
			14.8		2.9976e+00		1.0000e+00
			14.85		3.0339e+00		1.0000e+00
			14.9		3.0703e+00		1.0000e+00
			14.95		3.1066e+00		1.0000e+00
			15.0		3.1430e+00		1.0000e+00
			15.05		3.5775e+00		1.0000e+00
			15.1		4.0119e+00		1.0000e+00
			15.15		4.4464e+00		1.0000e+00
			15.2		4.8808e+00		1.0000e+00
			15.25		5.4238e+00		1.0000e+00
			15.3		5.9668e+00		1.0000e+00
			15.35		6.5098e+00		1.0000e+00
			15.4		7.0528e+00		1.0000e+00
			15.45		7.1751e+00		1.0000e+00
			15.5		7.2974e+00		1.0000e+00
			15.55		7.4197e+00		1.0000e+00
			15.6		7.5420e+00		1.0000e+00
			15.65		7.2701e+00		1.0000e+00
			15.7		6.9982e+00		1.0000e+00
			15.75		6.7264e+00		1.0000e+00
			15.8		6.4545e+00		1.0000e+00
			15.85		5.8474e+00		1.0000e+00
			15.9		5.2403e+00		1.0000e+00
			15.95		4.6332e+00		1.0000e+00
			16.0		4.0261e+00		1.0000e+00
			16.05		3.8128e+00		1.0000e+00
			16.1		3.5995e+00		1.0000e+00
			16.15		3.3862e+00		1.0000e+00
			16.2		3.1729e+00		1.0000e+00
			16.25		3.2367e+00		1.0000e+00
			16.3		3.3006e+00		1.0000e+00
			16.35		3.3644e+00		1.0000e+00
			16.4		3.4283e+00		1.0000e+00
			16.45		3.8526e+00		1.0000e+00
			16.5		4.2769e+00		1.0000e+00
			16.55		4.7012e+00		1.0000e+00
			16.6		5.1255e+00		1.0000e+00
			16.65		5.6430e+00		1.0000e+00
			16.7		6.1605e+00		1.0000e+00
			16.75		6.6780e+00		1.0000e+00
			16.8		7.1955e+00		1.0000e+00
			16.85		7.2923e+00		1.0000e+00
			16.9		7.3891e+00		1.0000e+00
			16.95		7.4858e+00		1.0000e+00
			17.0		7.5826e+00		1.0000e+00
			17.05		7.3264e+00		1.0000e+00
			17.1		7.0702e+00		1.0000e+00
			17.15		6.8139e+00		1.0000e+00
			17.2		6.5577e+00		1.0000e+00
			17.25		5.9707e+00		1.0000e+00
			17.3		5.3837e+00		1.0000e+00
			17.35		4.7966e+00		1.0000e+00
			17.4		4.2096e+00		1.0000e+00
			17.45		4.0082e+00		1.0000e+00
			17.5		3.8068e+00		1.0000e+00
			17.55		3.6055e+00		1.0000e+00
			17.6		3.4041e+00		1.0000e+00
			17.65		3.4408e+00		1.0000e+00
			17.7		3.4776e+00		1.0000e+00
			17.75		3.5144e+00		1.0000e+00
			17.8		3.5511e+00		1.0000e+00
			17.85		3.9549e+00		1.0000e+00
			17.9		4.3588e+00		1.0000e+00
			17.95		4.7626e+00		1.0000e+00
			18.0		5.1664e+00		1.0000e+00
			18.05		5.6863e+00		1.0000e+00
			18.1		6.2063e+00		1.0000e+00
			18.15		6.7263e+00		1.0000e+00
			18.2		7.2463e+00		1.0000e+00
			18.25		7.3776e+00		1.0000e+00
			18.3		7.5088e+00		1.0000e+00
			18.35		7.6401e+00		1.0000e+00
			18.4		7.7714e+00		1.0000e+00
			18.45		7.5307e+00		1.0000e+00
			18.5		7.2901e+00		1.0000e+00
			18.55		7.0495e+00		1.0000e+00
			18.6		6.8089e+00		1.0000e+00
			18.65		6.2043e+00		1.0000e+00
			18.7		5.5998e+00		1.0000e+00
			18.75		4.9952e+00		1.0000e+00
			18.8		4.3907e+00		1.0000e+00
			18.85		4.1554e+00		1.0000e+00
			18.9		3.9202e+00		1.0000e+00
			18.95		3.6849e+00		1.0000e+00
			19.0		3.4496e+00		1.0000e+00
			19.05		3.4812e+00		1.0000e+00
			19.1		3.5127e+00		1.0000e+00
			19.15		3.5443e+00		1.0000e+00
			19.2		3.5758e+00		1.0000e+00
			19.25		4.0021e+00		1.0000e+00
			19.3		4.4283e+00		1.0000e+00
			19.35		4.8545e+00		1.0000e+00
			19.4		5.2808e+00		1.0000e+00
			19.45		5.8307e+00		1.0000e+00
			19.5		6.3806e+00		1.0000e+00
			19.55		6.9306e+00		1.0000e+00
			19.6		7.4805e+00		1.0000e+00
			19.65		7.6022e+00		1.0000e+00
			19.7		7.7239e+00		1.0000e+00
			19.75		7.8456e+00		1.0000e+00
			19.8		7.9673e+00		1.0000e+00
			19.85		7.6898e+00		1.0000e+00
			19.9		7.4123e+00		1.0000e+00
			19.95		7.1349e+00		1.0000e+00
			20.0		6.8574e+00		1.0000e+00
			20.05		6.2245e+00		1.0000e+00
			20.1		5.5917e+00		1.0000e+00
			20.15		4.9588e+00		1.0000e+00
			20.2		4.3259e+00		1.0000e+00
			20.25		4.1102e+00		1.0000e+00
			20.3		3.8944e+00		1.0000e+00
			20.35		3.6786e+00		1.0000e+00
			20.4		3.4628e+00		1.0000e+00
			20.45		3.5231e+00		1.0000e+00
			20.5		3.5834e+00		1.0000e+00
			20.55		3.6437e+00		1.0000e+00
			20.6		3.7039e+00		1.0000e+00
			20.65		4.1552e+00		1.0000e+00
			20.7		4.6065e+00		1.0000e+00
			20.75		5.0578e+00		1.0000e+00
			20.8		5.5091e+00		1.0000e+00
			20.85		6.0321e+00		1.0000e+00
			20.9		6.5550e+00		1.0000e+00
			20.95		7.0780e+00		1.0000e+00
			21.0		7.6010e+00		1.0000e+00
			21.05		7.6915e+00		1.0000e+00
			21.1		7.7821e+00		1.0000e+00
			21.15		7.8726e+00		1.0000e+00
			21.2		7.9632e+00		1.0000e+00
			21.25		7.6701e+00		1.0000e+00
			21.3		7.3770e+00		1.0000e+00
			21.35		7.0840e+00		1.0000e+00
			21.4		6.7909e+00		1.0000e+00
			21.45		6.1864e+00		1.0000e+00
			21.5		5.5819e+00		1.0000e+00
			21.55		4.9774e+00		1.0000e+00
			21.6		4.3728e+00		1.0000e+00
			21.65		4.1748e+00		1.0000e+00
			21.7		3.9768e+00		1.0000e+00
			21.75		3.7789e+00		1.0000e+00
			21.8		3.5809e+00		1.0000e+00
			21.85		3.6479e+00		1.0000e+00
			21.9		3.7150e+00		1.0000e+00
			21.95		3.7821e+00		1.0000e+00
			22.0		3.8492e+00		1.0000e+00
			22.05		4.2721e+00		1.0000e+00
			22.1		4.6951e+00		1.0000e+00
			22.15		5.1180e+00		1.0000e+00
			22.2		5.5410e+00		1.0000e+00
			22.25		6.0442e+00		1.0000e+00
			22.3		6.5475e+00		1.0000e+00
			22.35		7.0508e+00		1.0000e+00
			22.4		7.5541e+00		1.0000e+00
			22.45		7.6401e+00		1.0000e+00
			22.5		7.7260e+00		1.0000e+00
			22.55		7.8120e+00		1.0000e+00
			22.6		7.8980e+00		1.0000e+00
			22.65		7.6210e+00		1.0000e+00
			22.7		7.3440e+00		1.0000e+00
			22.75		7.0670e+00		1.0000e+00
			22.8		6.7901e+00		1.0000e+00
			22.85		6.1943e+00		1.0000e+00
			22.9		5.5986e+00		1.0000e+00
			22.95		5.0028e+00		1.0000e+00
			23.0		4.4071e+00		1.0000e+00
			23.05		4.2069e+00		1.0000e+00
			23.1		4.0067e+00		1.0000e+00
			23.15		3.8066e+00		1.0000e+00
			23.2		3.6064e+00		1.0000e+00
			23.25		3.6624e+00		1.0000e+00
			23.3		3.7184e+00		1.0000e+00
			23.35		3.7744e+00		1.0000e+00
			23.4		3.8304e+00		1.0000e+00
			23.45		4.2536e+00		1.0000e+00
			23.5		4.6768e+00		1.0000e+00
			23.55		5.1000e+00		1.0000e+00
			23.6		5.5232e+00		1.0000e+00
			23.65		6.0272e+00		1.0000e+00
			23.7		6.5312e+00		1.0000e+00
			23.75		7.0352e+00		1.0000e+00
			23.8		7.5392e+00		1.0000e+00
			23.85		7.6301e+00		1.0000e+00
			23.9		7.7210e+00		1.0000e+00
			23.95		7.8119e+00		1.0000e+00
			24.0		7.9027e+00		1.0000e+00
			24.05		7.6251e+00		1.0000e+00
			24.1		7.3474e+00		1.0000e+00
			24.15		7.0698e+00		1.0000e+00
			24.2		6.7921e+00		1.0000e+00
			24.25		6.1941e+00		1.0000e+00
			24.3		5.5961e+00		1.0000e+00
			24.35		4.9981e+00		1.0000e+00
			24.4		4.4001e+00		1.0000e+00
			24.45		4.2024e+00		1.0000e+00
			24.5		4.0047e+00		1.0000e+00
			24.55		3.8071e+00		1.0000e+00
			24.6		3.6094e+00		1.0000e+00
			24.65		3.6674e+00		1.0000e+00
			24.7		3.7254e+00		1.0000e+00
			24.75		3.7834e+00		1.0000e+00
			24.8		3.8414e+00		1.0000e+00
			24.85		4.2632e+00		1.0000e+00
			24.9		4.6850e+00		1.0000e+00
			24.95		5.1069e+00		1.0000e+00
			25.0		5.5287e+00		1.0000e+00
			25.05		6.0315e+00		1.0000e+00
			25.1		6.5344e+00		1.0000e+00
			25.15		7.0372e+00		1.0000e+00
			25.2		7.5400e+00		1.0000e+00
			25.25		7.6253e+00		1.0000e+00
			25.3		7.7105e+00		1.0000e+00
			25.35		7.7958e+00		1.0000e+00
			25.4		7.8810e+00		1.0000e+00
			25.45		7.6041e+00		1.0000e+00
			25.5		7.3272e+00		1.0000e+00
			25.55		7.0503e+00		1.0000e+00
			25.6		6.7734e+00		1.0000e+00
			25.65		6.1749e+00		1.0000e+00
			25.7		5.5764e+00		1.0000e+00
			25.75		4.9779e+00		1.0000e+00
			25.8		4.3794e+00		1.0000e+00
			25.85		4.1833e+00		1.0000e+00
			25.9		3.9873e+00		1.0000e+00
			25.95		3.7912e+00		1.0000e+00
			26.0		3.5952e+00		1.0000e+00
			26.05		3.6589e+00		1.0000e+00
			26.1		3.7226e+00		1.0000e+00
			26.15		3.7864e+00		1.0000e+00
			26.2		3.8501e+00		1.0000e+00
			26.25		4.2738e+00		1.0000e+00
			26.3		4.6975e+00		1.0000e+00
			26.35		5.1212e+00		1.0000e+00
			26.4		5.5449e+00		1.0000e+00
			26.45		6.0496e+00		1.0000e+00
			26.5		6.5543e+00		1.0000e+00
			26.55		7.0589e+00		1.0000e+00
			26.6		7.5636e+00		1.0000e+00
			26.65		7.6453e+00		1.0000e+00
			26.7		7.7269e+00		1.0000e+00
			26.75		7.8086e+00		1.0000e+00
			26.8		7.8902e+00		1.0000e+00
			26.85		7.6127e+00		1.0000e+00
			26.9		7.3353e+00		1.0000e+00
			26.95		7.0578e+00		1.0000e+00
			27.0		6.7803e+00		1.0000e+00
			27.05		6.1828e+00		1.0000e+00
			27.1		5.5853e+00		1.0000e+00
			27.15		4.9877e+00		1.0000e+00
			27.2		4.3902e+00		1.0000e+00
			27.25		4.1943e+00		1.0000e+00
			27.3		3.9985e+00		1.0000e+00
			27.35		3.8026e+00		1.0000e+00
			27.4		3.6067e+00		1.0000e+00
			27.45		3.6665e+00		1.0000e+00
			27.5		3.7263e+00		1.0000e+00
			27.55		3.7861e+00		1.0000e+00
			27.6		3.8459e+00		1.0000e+00
			27.65		4.2669e+00		1.0000e+00
			27.7		4.6879e+00		1.0000e+00
			27.75		5.1089e+00		1.0000e+00
			27.8		5.5300e+00		1.0000e+00
			27.85		6.0362e+00		1.0000e+00
			27.9		6.5424e+00		1.0000e+00
			27.95		7.0486e+00		1.0000e+00
			28.0		7.5549e+00		1.0000e+00
			28.05		7.6464e+00		1.0000e+00
			28.1		7.7380e+00		1.0000e+00
			28.15		7.8296e+00		1.0000e+00
			28.2		7.9212e+00		1.0000e+00
			28.25		7.6421e+00		1.0000e+00
			28.3		7.3630e+00		1.0000e+00
			28.35		7.0840e+00		1.0000e+00
			28.4		6.8049e+00		1.0000e+00
			28.45		6.1966e+00		1.0000e+00
			28.5		5.5883e+00		1.0000e+00
			28.55		4.9800e+00		1.0000e+00
			28.6		4.3717e+00		1.0000e+00
			28.65		4.1542e+00		1.0000e+00
			28.7		3.9367e+00		1.0000e+00
			28.75		3.7193e+00		1.0000e+00
			28.8		3.5018e+00		1.0000e+00
			28.85		3.5645e+00		1.0000e+00
			28.9		3.6271e+00		1.0000e+00
			28.95		3.6898e+00		1.0000e+00
			29.0		3.7525e+00		1.0000e+00
			29.05		4.1873e+00		1.0000e+00
			29.1		4.6222e+00		1.0000e+00
			29.15		5.0571e+00		1.0000e+00
			29.2		5.4920e+00		1.0000e+00
			29.25		6.0213e+00		1.0000e+00
			29.3		6.5506e+00		1.0000e+00
			29.35		7.0799e+00		1.0000e+00
			29.4		7.6092e+00		1.0000e+00
			29.45		7.6924e+00		1.0000e+00
			29.5		7.7757e+00		1.0000e+00
			29.55		7.8590e+00		1.0000e+00
			29.6		7.9423e+00		1.0000e+00
			29.65		7.6358e+00		1.0000e+00
			29.7		7.3293e+00		1.0000e+00
			29.75		7.0228e+00		1.0000e+00
			29.8		6.7164e+00		1.0000e+00
			29.85		6.0777e+00		1.0000e+00
			29.9		5.4390e+00		1.0000e+00
			29.95		4.8003e+00		1.0000e+00
			30.0		4.1616e+00		1.0000e+00
			30.05		3.9615e+00		1.0000e+00
			30.1		3.7613e+00		1.0000e+00
			30.15		3.5611e+00		1.0000e+00
			30.2		3.3609e+00		1.0000e+00
			30.25		3.4457e+00		1.0000e+00
			30.3		3.5304e+00		1.0000e+00
			30.35		3.6151e+00		1.0000e+00
			30.4		3.6999e+00		1.0000e+00
			30.45		4.1624e+00		1.0000e+00
			30.5		4.6250e+00		1.0000e+00
			30.55		5.0875e+00		1.0000e+00
			30.6		5.5501e+00		1.0000e+00
			30.65		6.0561e+00		1.0000e+00
			30.7		6.5621e+00		1.0000e+00
			30.75		7.0681e+00		1.0000e+00
			30.8		7.5741e+00		1.0000e+00
			30.85		7.6212e+00		1.0000e+00
			30.9		7.6682e+00		1.0000e+00
			30.95		7.7152e+00		1.0000e+00
			31.0		7.7622e+00		1.0000e+00
			31.05		7.4377e+00		1.0000e+00
			31.1		7.1131e+00		1.0000e+00
			31.15		6.7886e+00		1.0000e+00
			31.2		6.4640e+00		1.0000e+00
			31.25		5.8531e+00		1.0000e+00
			31.3		5.2423e+00		1.0000e+00
			31.35		4.6314e+00		1.0000e+00
			31.4		4.0205e+00		1.0000e+00
			31.45		3.8479e+00		1.0000e+00
			31.5		3.6754e+00		1.0000e+00
			31.55		3.5028e+00		1.0000e+00
			31.6		3.3302e+00		1.0000e+00
			31.65		3.4237e+00		1.0000e+00
			31.7		3.5172e+00		1.0000e+00
			31.75		3.6107e+00		1.0000e+00
			31.8		3.7042e+00		1.0000e+00
			31.85		4.1361e+00		1.0000e+00
			31.9		4.5680e+00		1.0000e+00
			31.95		5.0000e+00		1.0000e+00
			32.0		5.4319e+00		1.0000e+00
			32.05		5.9089e+00		1.0000e+00
			32.1		6.3859e+00		1.0000e+00
			32.15		6.8629e+00		1.0000e+00
			32.2		7.3399e+00		1.0000e+00
			32.25		7.3924e+00		1.0000e+00
			32.3		7.4449e+00		1.0000e+00
			32.35		7.4974e+00		1.0000e+00
			32.4		7.5498e+00		1.0000e+00
			32.45		7.2576e+00		1.0000e+00
			32.5		6.9654e+00		1.0000e+00
			32.55		6.6731e+00		1.0000e+00
			32.6		6.3809e+00		1.0000e+00
			32.65		5.7850e+00		1.0000e+00
			32.7		5.1891e+00		1.0000e+00
			32.75		4.5933e+00		1.0000e+00
			32.8		3.9974e+00		1.0000e+00
			32.85		3.8096e+00		1.0000e+00
			32.9		3.6218e+00		1.0000e+00
			32.95		3.4340e+00		1.0000e+00
			33.0		3.2462e+00		1.0000e+00
			33.05		3.3062e+00		1.0000e+00
			33.1		3.3662e+00		1.0000e+00
			33.15		3.4262e+00		1.0000e+00
			33.2		3.4861e+00		1.0000e+00
			33.25		3.9138e+00		1.0000e+00
			33.3		4.3415e+00		1.0000e+00
			33.35		4.7691e+00		1.0000e+00
			33.4		5.1968e+00		1.0000e+00
			33.45		5.6952e+00		1.0000e+00
			33.5		6.1935e+00		1.0000e+00
			33.55		6.6919e+00		1.0000e+00
			33.6		7.1902e+00		1.0000e+00
			33.65		7.2663e+00		1.0000e+00
			33.7		7.3424e+00		1.0000e+00
			33.75		7.4184e+00		1.0000e+00
			33.8		7.4945e+00		1.0000e+00
			33.85		7.1888e+00		1.0000e+00
			33.9		6.8830e+00		1.0000e+00
			33.95		6.5773e+00		1.0000e+00
			34.0		6.2715e+00		1.0000e+00
			34.05		5.6519e+00		1.0000e+00
			34.1		5.0322e+00		1.0000e+00
			34.15		4.4126e+00		1.0000e+00
			34.2		3.7930e+00		1.0000e+00
			34.25		3.5855e+00		1.0000e+00
			34.3		3.3780e+00		1.0000e+00
			34.35		3.1706e+00		1.0000e+00
			34.4		2.9631e+00		1.0000e+00
			34.45		3.0448e+00		1.0000e+00
			34.5		3.1264e+00		1.0000e+00
			34.55		3.2081e+00		1.0000e+00
			34.6		3.2898e+00		1.0000e+00
			34.65		3.7378e+00		1.0000e+00
			34.7		4.1859e+00		1.0000e+00
			34.75		4.6339e+00		1.0000e+00
			34.8		5.0819e+00		1.0000e+00
			34.85		5.5859e+00		1.0000e+00
			34.9		6.0898e+00		1.0000e+00
			34.95		6.5937e+00		1.0000e+00
			35.0		7.0977e+00		1.0000e+00
			35.05		7.1460e+00		1.0000e+00
			35.1		7.1944e+00		1.0000e+00
			35.15		7.2428e+00		1.0000e+00
			35.2		7.2912e+00		1.0000e+00
			35.25		6.9685e+00		1.0000e+00
			35.3		6.6458e+00		1.0000e+00
			35.35		6.3232e+00		1.0000e+00
			35.4		6.0005e+00		1.0000e+00
			35.45		5.3808e+00		1.0000e+00
			35.5		4.7612e+00		1.0000e+00
			35.55		4.1415e+00		1.0000e+00
			35.6		3.5219e+00		1.0000e+00
			35.65		3.3420e+00		1.0000e+00
			35.7		3.1621e+00		1.0000e+00
			35.75		2.9821e+00		1.0000e+00
			35.8		2.8022e+00		1.0000e+00
			35.85		2.8812e+00		1.0000e+00
			35.9		2.9602e+00		1.0000e+00
			35.95		3.0392e+00		1.0000e+00
			36.0		3.1181e+00		1.0000e+00
			36.05		3.5578e+00		1.0000e+00
			36.1		3.9975e+00		1.0000e+00
			36.15		4.4372e+00		1.0000e+00
			36.2		4.8769e+00		1.0000e+00
			36.25		5.3646e+00		1.0000e+00
			36.3		5.8524e+00		1.0000e+00
			36.35		6.3402e+00		1.0000e+00
			36.4		6.8279e+00		1.0000e+00
			36.45		6.8769e+00		1.0000e+00
			36.5		6.9258e+00		1.0000e+00
			36.55		6.9748e+00		1.0000e+00
			36.6		7.0237e+00		1.0000e+00
			36.65		6.7048e+00		1.0000e+00
			36.7		6.3859e+00		1.0000e+00
			36.75		6.0670e+00		1.0000e+00
			36.8		5.7481e+00		1.0000e+00
			36.85		5.1322e+00		1.0000e+00
			36.9		4.5163e+00		1.0000e+00
			36.95		3.9004e+00		1.0000e+00
			37.0		3.2845e+00		1.0000e+00
			37.05		3.0891e+00		1.0000e+00
			37.1		2.8937e+00		1.0000e+00
			37.15		2.6984e+00		1.0000e+00
			37.2		2.5030e+00		1.0000e+00
			37.25		2.5803e+00		1.0000e+00
			37.3		2.6576e+00		1.0000e+00
			37.35		2.7349e+00		1.0000e+00
			37.4		2.8122e+00		1.0000e+00
			37.45		3.2616e+00		1.0000e+00
			37.5		3.7109e+00		1.0000e+00
			37.55		4.1602e+00		1.0000e+00
			37.6		4.6095e+00		1.0000e+00
			37.65		5.1046e+00		1.0000e+00
			37.7		5.5997e+00		1.0000e+00
			37.75		6.0949e+00		1.0000e+00
			37.8		6.5900e+00		1.0000e+00
			37.85		6.6289e+00		1.0000e+00
			37.9		6.6679e+00		1.0000e+00
			37.95		6.7069e+00		1.0000e+00
			38.0		6.7459e+00		1.0000e+00
			38.05		6.4011e+00		1.0000e+00
			38.1		6.0563e+00		1.0000e+00
			38.15		5.7116e+00		1.0000e+00
			38.2		5.3668e+00		1.0000e+00
			38.25		4.7024e+00		1.0000e+00
			38.3		4.0379e+00		1.0000e+00
			38.35		3.3735e+00		1.0000e+00
			38.4		2.7091e+00		1.0000e+00
			38.45		2.4615e+00		1.0000e+00
			38.5		2.2140e+00		1.0000e+00
			38.55		1.9665e+00		1.0000e+00
			38.6		1.7189e+00		1.0000e+00
			38.65		1.6811e+00		1.0000e+00
			38.7		1.6434e+00		1.0000e+00
			38.75		1.6056e+00		1.0000e+00
			38.8		1.5678e+00		1.0000e+00
			38.85		1.5300e+00		1.0000e+00
			38.9		1.4923e+00		1.0000e+00
			38.95		1.4545e+00		1.0000e+00
			39.0		1.4167e+00		1.0000e+00
			39.05		1.3790e+00		1.0000e+00
			39.1		1.3412e+00		1.0000e+00
			39.15		1.3035e+00		1.0000e+00
			39.2		1.2657e+00		1.0000e+00
			39.25		1.2280e+00		1.0000e+00
			39.3		1.1903e+00		1.0000e+00
			39.35		1.1526e+00		1.0000e+00
			39.4		1.1148e+00		1.0000e+00
			39.45		1.1046e+00		1.0000e+00
			39.5		1.0945e+00		1.0000e+00
			39.55		1.0843e+00		1.0000e+00
			39.6		1.0741e+00		1.0000e+00
			39.65		1.0639e+00		1.0000e+00
