BEGIN_SCAN_DATA
	FORMAT=CC-Export V1.9                  
	FILE_CREATION_DATE=
	LAST_MODIFIED=11-Jan-2023 10:50:22
	BEGIN_SCAN  1
		TASK_NAME=RayStation Phantom Profiles & PDDs
		PROGRAM=RayStation
		COMMENT=RayStation Script Export
		MEAS_DATE=11-Jan-2023 10:50:22
		LINAC=RayStation
		MODALITY=X
		ISOCENTER=1000.00
		INPLANE_AXIS=Y
		CROSSPLANE_AXIS=X
		DEPTH_AXIS=Z
		INPLANE_AXIS_DIR=GUN_TARGET
		CROSSPLANE_AXIS_DIR=LEFT_RIGHT
		DEPTH_AXIS_DIR=UP_DOWN
		ENERGY=6.3
		NOMINAL_DMAX=20.00
		SSD=1000.0
		SCD=1000.00
		WEDGE_ANGLE=0.00
		FIELD_INPLANE=200.0
		FIELD_CROSSPLANE=200.0
		FIELD_TYPE=IRREGULAR
		GANTRY=0.00
		GANTRY_UPRIGHT_POSITION=0
		GANTRY_ROTATION=CW
		COLL_ANGLE=0.00
		REF_FIELD_DEPTH=50.00
		REF_FIELD_DEFINED=ISOCENTER
		FIELD_INPLANE=200.0
		FIELD_CROSSPLANE=200.0
		SCAN_CURVETYPE=INPLANE_PROFILE
		SCAN_DEPTH=50.0
		SCAN_OFFAXIS_INPLANE=0.00
		SCAN_OFFAXIS_CROSSPLANE=0.00
		SCAN_ANGLE=0.00
		SCAN_DIAGONAL=NOT_DIAGONAL
		SCAN_DIRECTION=NEGATIVE
		MEAS_MEDIUM=WATER
		MEAS_UNIT=cGy
		INCLINATION_ANGLE=0.00
		PRESSURE=1013.20
		TEMPERATURE=20.00
		NORM_TEMPERATURE=20.00
		CORRECTION_FACTOR=1.0000;
		BEGIN_DATA
			-5.0		4.1467e-03		1.0000e+00
			-4.95		4.1957e-03		1.0000e+00
			-4.9		4.2447e-03		1.0000e+00
			-4.85		4.2937e-03		1.0000e+00
			-4.8		4.3427e-03		1.0000e+00
			-4.75		4.3808e-03		1.0000e+00
			-4.7		4.4189e-03		1.0000e+00
			-4.65		4.4569e-03		1.0000e+00
			-4.6		4.4950e-03		1.0000e+00
			-4.55		4.5620e-03		1.0000e+00
			-4.5		4.6290e-03		1.0000e+00
			-4.45		4.6960e-03		1.0000e+00
			-4.4		4.7630e-03		1.0000e+00
			-4.35		4.8064e-03		1.0000e+00
			-4.3		4.8498e-03		1.0000e+00
			-4.25		4.8932e-03		1.0000e+00
			-4.2		4.9366e-03		1.0000e+00
			-4.15		5.0174e-03		1.0000e+00
			-4.1		5.0982e-03		1.0000e+00
			-4.05		5.1791e-03		1.0000e+00
			-4.0		5.2599e-03		1.0000e+00
			-3.95		5.3055e-03		1.0000e+00
			-3.9		5.3511e-03		1.0000e+00
			-3.85		5.3967e-03		1.0000e+00
			-3.8		5.4424e-03		1.0000e+00
			-3.75		5.5432e-03		1.0000e+00
			-3.7		5.6440e-03		1.0000e+00
			-3.65		5.7448e-03		1.0000e+00
			-3.6		5.8457e-03		1.0000e+00
			-3.55		5.8943e-03		1.0000e+00
			-3.5		5.9429e-03		1.0000e+00
			-3.45		5.9915e-03		1.0000e+00
			-3.4		6.0402e-03		1.0000e+00
			-3.35		6.1626e-03		1.0000e+00
			-3.3		6.2851e-03		1.0000e+00
			-3.25		6.4076e-03		1.0000e+00
			-3.2		6.5301e-03		1.0000e+00
			-3.15		6.5864e-03		1.0000e+00
			-3.1		6.6428e-03		1.0000e+00
			-3.05		6.6991e-03		1.0000e+00
			-3.0		6.7555e-03		1.0000e+00
			-2.95		6.9045e-03		1.0000e+00
			-2.9		7.0535e-03		1.0000e+00
			-2.85		7.2025e-03		1.0000e+00
			-2.8		7.3515e-03		1.0000e+00
			-2.75		7.4142e-03		1.0000e+00
			-2.7		7.4770e-03		1.0000e+00
			-2.65		7.5398e-03		1.0000e+00
			-2.6		7.6025e-03		1.0000e+00
			-2.55		7.7878e-03		1.0000e+00
			-2.5		7.9731e-03		1.0000e+00
			-2.45		8.1584e-03		1.0000e+00
			-2.4		8.3437e-03		1.0000e+00
			-2.35		8.4128e-03		1.0000e+00
			-2.3		8.4820e-03		1.0000e+00
			-2.25		8.5512e-03		1.0000e+00
			-2.2		8.6204e-03		1.0000e+00
			-2.15		8.8477e-03		1.0000e+00
			-2.1		9.0751e-03		1.0000e+00
			-2.05		9.3025e-03		1.0000e+00
			-2.0		9.5299e-03		1.0000e+00
			-1.95		9.6135e-03		1.0000e+00
			-1.9		9.6971e-03		1.0000e+00
			-1.85		9.7808e-03		1.0000e+00
			-1.8		9.8644e-03		1.0000e+00
			-1.75		1.0151e-02		1.0000e+00
			-1.7		1.0438e-02		1.0000e+00
			-1.65		1.0725e-02		1.0000e+00
			-1.6		1.1011e-02		1.0000e+00
			-1.55		1.1104e-02		1.0000e+00
			-1.5		1.1197e-02		1.0000e+00
			-1.45		1.1290e-02		1.0000e+00
			-1.4		1.1383e-02		1.0000e+00
			-1.35		1.1732e-02		1.0000e+00
			-1.3		1.2080e-02		1.0000e+00
			-1.25		1.2429e-02		1.0000e+00
			-1.2		1.2778e-02		1.0000e+00
			-1.15		1.2882e-02		1.0000e+00
			-1.1		1.2987e-02		1.0000e+00
			-1.05		1.3091e-02		1.0000e+00
			-1.0		1.3195e-02		1.0000e+00
			-0.95		1.3620e-02		1.0000e+00
			-0.9		1.4046e-02		1.0000e+00
			-0.85		1.4471e-02		1.0000e+00
			-0.8		1.4896e-02		1.0000e+00
			-0.75		1.5007e-02		1.0000e+00
			-0.7		1.5118e-02		1.0000e+00
			-0.65		1.5229e-02		1.0000e+00
			-0.6		1.5341e-02		1.0000e+00
			-0.55		1.5855e-02		1.0000e+00
			-0.5		1.6370e-02		1.0000e+00
			-0.45		1.6885e-02		1.0000e+00
			-0.4		1.7400e-02		1.0000e+00
			-0.35		1.7515e-02		1.0000e+00
			-0.3		1.7630e-02		1.0000e+00
			-0.25		1.7745e-02		1.0000e+00
			-0.2		1.7860e-02		1.0000e+00
			-0.15		1.8483e-02		1.0000e+00
			-0.1		1.9105e-02		1.0000e+00
			-0.05		1.9728e-02		1.0000e+00
			-0.0		2.0350e-02		1.0000e+00
			0.05		2.0482e-02		1.0000e+00
			0.1		2.0614e-02		1.0000e+00
			0.15		2.0747e-02		1.0000e+00
			0.2		2.0879e-02		1.0000e+00
			0.25		2.1622e-02		1.0000e+00
			0.3		2.2364e-02		1.0000e+00
			0.35		2.3107e-02		1.0000e+00
			0.4		2.3850e-02		1.0000e+00
			0.45		2.3990e-02		1.0000e+00
			0.5		2.4130e-02		1.0000e+00
			0.55		2.4269e-02		1.0000e+00
			0.6		2.4409e-02		1.0000e+00
			0.65		2.5300e-02		1.0000e+00
			0.7		2.6191e-02		1.0000e+00
			0.75		2.7082e-02		1.0000e+00
			0.8		2.7973e-02		1.0000e+00
			0.85		2.8126e-02		1.0000e+00
			0.9		2.8279e-02		1.0000e+00
			0.95		2.8431e-02		1.0000e+00
			1.0		2.8584e-02		1.0000e+00
			1.05		2.9623e-02		1.0000e+00
			1.1		3.0661e-02		1.0000e+00
			1.15		3.1700e-02		1.0000e+00
			1.2		3.2738e-02		1.0000e+00
			1.25		3.2920e-02		1.0000e+00
			1.3		3.3102e-02		1.0000e+00
			1.35		3.3284e-02		1.0000e+00
			1.4		3.3466e-02		1.0000e+00
			1.45		3.4671e-02		1.0000e+00
			1.5		3.5877e-02		1.0000e+00
			1.55		3.7083e-02		1.0000e+00
			1.6		3.8289e-02		1.0000e+00
			1.65		3.8484e-02		1.0000e+00
			1.7		3.8679e-02		1.0000e+00
			1.75		3.8874e-02		1.0000e+00
			1.8		3.9069e-02		1.0000e+00
			1.85		4.0470e-02		1.0000e+00
			1.9		4.1871e-02		1.0000e+00
			1.95		4.3272e-02		1.0000e+00
			2.0		4.4673e-02		1.0000e+00
			2.05		4.4896e-02		1.0000e+00
			2.1		4.5120e-02		1.0000e+00
			2.15		4.5344e-02		1.0000e+00
			2.2		4.5568e-02		1.0000e+00
			2.25		4.7157e-02		1.0000e+00
			2.3		4.8746e-02		1.0000e+00
			2.35		5.0336e-02		1.0000e+00
			2.4		5.1925e-02		1.0000e+00
			2.45		5.2203e-02		1.0000e+00
			2.5		5.2480e-02		1.0000e+00
			2.55		5.2758e-02		1.0000e+00
			2.6		5.3036e-02		1.0000e+00
			2.65		5.4841e-02		1.0000e+00
			2.7		5.6646e-02		1.0000e+00
			2.75		5.8451e-02		1.0000e+00
			2.8		6.0256e-02		1.0000e+00
			2.85		6.0584e-02		1.0000e+00
			2.9		6.0912e-02		1.0000e+00
			2.95		6.1240e-02		1.0000e+00
			3.0		6.1568e-02		1.0000e+00
			3.05		6.3600e-02		1.0000e+00
			3.1		6.5632e-02		1.0000e+00
			3.15		6.7664e-02		1.0000e+00
			3.2		6.9695e-02		1.0000e+00
			3.25		7.0088e-02		1.0000e+00
			3.3		7.0480e-02		1.0000e+00
			3.35		7.0872e-02		1.0000e+00
			3.4		7.1265e-02		1.0000e+00
			3.45		7.3510e-02		1.0000e+00
			3.5		7.5755e-02		1.0000e+00
			3.55		7.8001e-02		1.0000e+00
			3.6		8.0246e-02		1.0000e+00
			3.65		8.0722e-02		1.0000e+00
			3.7		8.1198e-02		1.0000e+00
			3.75		8.1674e-02		1.0000e+00
			3.8		8.2150e-02		1.0000e+00
			3.85		8.4610e-02		1.0000e+00
			3.9		8.7070e-02		1.0000e+00
			3.95		8.9530e-02		1.0000e+00
			4.0		9.1990e-02		1.0000e+00
			4.05		9.2567e-02		1.0000e+00
			4.1		9.3144e-02		1.0000e+00
			4.15		9.3722e-02		1.0000e+00
			4.2		9.4299e-02		1.0000e+00
			4.25		9.6967e-02		1.0000e+00
			4.3		9.9635e-02		1.0000e+00
			4.35		1.0230e-01		1.0000e+00
			4.4		1.0497e-01		1.0000e+00
			4.45		1.0567e-01		1.0000e+00
			4.5		1.0637e-01		1.0000e+00
			4.55		1.0708e-01		1.0000e+00
			4.6		1.0778e-01		1.0000e+00
			4.65		1.1063e-01		1.0000e+00
			4.7		1.1347e-01		1.0000e+00
			4.75		1.1632e-01		1.0000e+00
			4.8		1.1917e-01		1.0000e+00
			4.85		1.2002e-01		1.0000e+00
			4.9		1.2088e-01		1.0000e+00
			4.95		1.2173e-01		1.0000e+00
			5.0		1.2259e-01		1.0000e+00
			5.05		1.2565e-01		1.0000e+00
			5.1		1.2871e-01		1.0000e+00
			5.15		1.3176e-01		1.0000e+00
			5.2		1.3482e-01		1.0000e+00
			5.25		1.3582e-01		1.0000e+00
			5.3		1.3682e-01		1.0000e+00
			5.35		1.3782e-01		1.0000e+00
			5.4		1.3882e-01		1.0000e+00
			5.45		1.4205e-01		1.0000e+00
			5.5		1.4528e-01		1.0000e+00
			5.55		1.4851e-01		1.0000e+00
			5.6		1.5174e-01		1.0000e+00
			5.65		1.5293e-01		1.0000e+00
			5.7		1.5412e-01		1.0000e+00
			5.75		1.5532e-01		1.0000e+00
			5.8		1.5651e-01		1.0000e+00
			5.85		1.9192e-01		1.0000e+00
			5.9		2.2732e-01		1.0000e+00
			5.95		2.6272e-01		1.0000e+00
			6.0		2.9812e-01		1.0000e+00
			6.05		3.3356e-01		1.0000e+00
			6.1		3.6899e-01		1.0000e+00
			6.15		4.0443e-01		1.0000e+00
			6.2		4.3987e-01		1.0000e+00
			6.25		4.7534e-01		1.0000e+00
			6.3		5.1081e-01		1.0000e+00
			6.35		5.4627e-01		1.0000e+00
			6.4		5.8174e-01		1.0000e+00
			6.45		6.1724e-01		1.0000e+00
			6.5		6.5273e-01		1.0000e+00
			6.55		6.8822e-01		1.0000e+00
			6.6		7.2372e-01		1.0000e+00
			6.65		7.2855e-01		1.0000e+00
			6.7		7.3339e-01		1.0000e+00
			6.75		7.3822e-01		1.0000e+00
			6.8		7.4306e-01		1.0000e+00
			6.85		7.4790e-01		1.0000e+00
			6.9		7.5273e-01		1.0000e+00
			6.95		7.5757e-01		1.0000e+00
			7.0		7.6241e-01		1.0000e+00
			7.05		7.6725e-01		1.0000e+00
			7.1		7.7209e-01		1.0000e+00
			7.15		7.7693e-01		1.0000e+00
			7.2		7.8177e-01		1.0000e+00
			7.25		7.8662e-01		1.0000e+00
			7.3		7.9146e-01		1.0000e+00
			7.35		7.9630e-01		1.0000e+00
			7.4		8.0115e-01		1.0000e+00
			7.45		8.0829e-01		1.0000e+00
			7.5		8.1543e-01		1.0000e+00
			7.55		8.2258e-01		1.0000e+00
			7.6		8.2972e-01		1.0000e+00
			7.65		8.3687e-01		1.0000e+00
			7.7		8.4402e-01		1.0000e+00
			7.75		8.5116e-01		1.0000e+00
			7.8		8.5831e-01		1.0000e+00
			7.85		8.6546e-01		1.0000e+00
			7.9		8.7262e-01		1.0000e+00
			7.95		8.7977e-01		1.0000e+00
			8.0		8.8692e-01		1.0000e+00
			8.05		8.9408e-01		1.0000e+00
			8.1		9.0123e-01		1.0000e+00
			8.15		9.0839e-01		1.0000e+00
			8.2		9.1554e-01		1.0000e+00
			8.25		9.2279e-01		1.0000e+00
			8.3		9.3003e-01		1.0000e+00
			8.35		9.3728e-01		1.0000e+00
			8.4		9.4453e-01		1.0000e+00
			8.45		9.5177e-01		1.0000e+00
			8.5		9.5902e-01		1.0000e+00
			8.55		9.6627e-01		1.0000e+00
			8.6		9.7352e-01		1.0000e+00
			8.65		9.8077e-01		1.0000e+00
			8.7		9.8803e-01		1.0000e+00
			8.75		9.9528e-01		1.0000e+00
			8.8		1.0025e+00		1.0000e+00
			8.85		1.0098e+00		1.0000e+00
			8.9		1.0170e+00		1.0000e+00
			8.95		1.0243e+00		1.0000e+00
			9.0		1.0316e+00		1.0000e+00
			9.05		1.0412e+00		1.0000e+00
			9.1		1.0508e+00		1.0000e+00
			9.15		1.0605e+00		1.0000e+00
			9.2		1.0701e+00		1.0000e+00
			9.25		1.0797e+00		1.0000e+00
			9.3		1.0894e+00		1.0000e+00
			9.35		1.0990e+00		1.0000e+00
			9.4		1.1087e+00		1.0000e+00
			9.45		1.1183e+00		1.0000e+00
			9.5		1.1280e+00		1.0000e+00
			9.55		1.1376e+00		1.0000e+00
			9.6		1.1473e+00		1.0000e+00
			9.65		1.1569e+00		1.0000e+00
			9.7		1.1666e+00		1.0000e+00
			9.75		1.1762e+00		1.0000e+00
			9.8		1.1859e+00		1.0000e+00
			9.85		1.2024e+00		1.0000e+00
			9.9		1.2188e+00		1.0000e+00
			9.95		1.2353e+00		1.0000e+00
			10.0		1.2518e+00		1.0000e+00
			10.05		1.2683e+00		1.0000e+00
			10.1		1.2848e+00		1.0000e+00
			10.15		1.3013e+00		1.0000e+00
			10.2		1.3177e+00		1.0000e+00
			10.25		1.3343e+00		1.0000e+00
			10.3		1.3509e+00		1.0000e+00
			10.35		1.3674e+00		1.0000e+00
			10.4		1.3840e+00		1.0000e+00
			10.45		1.4005e+00		1.0000e+00
			10.5		1.4171e+00		1.0000e+00
			10.55		1.4337e+00		1.0000e+00
			10.6		1.4502e+00		1.0000e+00
			10.65		1.4759e+00		1.0000e+00
			10.7		1.5015e+00		1.0000e+00
			10.75		1.5271e+00		1.0000e+00
			10.8		1.5527e+00		1.0000e+00
			10.85		1.5783e+00		1.0000e+00
			10.9		1.6040e+00		1.0000e+00
			10.95		1.6296e+00		1.0000e+00
			11.0		1.6552e+00		1.0000e+00
			11.05		1.7397e+00		1.0000e+00
			11.1		1.8242e+00		1.0000e+00
			11.15		1.9087e+00		1.0000e+00
			11.2		1.9932e+00		1.0000e+00
			11.25		2.2901e+00		1.0000e+00
			11.3		2.5871e+00		1.0000e+00
			11.35		2.8840e+00		1.0000e+00
			11.4		3.1810e+00		1.0000e+00
			11.45		4.0351e+00		1.0000e+00
			11.5		4.8893e+00		1.0000e+00
			11.55		5.7434e+00		1.0000e+00
			11.6		6.5975e+00		1.0000e+00
			11.65		7.0967e+00		1.0000e+00
			11.7		7.5959e+00		1.0000e+00
			11.75		8.0951e+00		1.0000e+00
			11.8		8.5943e+00		1.0000e+00
			11.85		8.5573e+00		1.0000e+00
			11.9		8.5202e+00		1.0000e+00
			11.95		8.4832e+00		1.0000e+00
			12.0		8.4462e+00		1.0000e+00
			12.05		7.7164e+00		1.0000e+00
			12.1		6.9867e+00		1.0000e+00
			12.15		6.2570e+00		1.0000e+00
			12.2		5.5273e+00		1.0000e+00
			12.25		5.0163e+00		1.0000e+00
			12.3		4.5054e+00		1.0000e+00
			12.35		3.9944e+00		1.0000e+00
			12.4		3.4834e+00		1.0000e+00
			12.45		3.4209e+00		1.0000e+00
			12.5		3.3584e+00		1.0000e+00
			12.55		3.2958e+00		1.0000e+00
			12.6		3.2333e+00		1.0000e+00
			12.65		3.6398e+00		1.0000e+00
			12.7		4.0463e+00		1.0000e+00
			12.75		4.4528e+00		1.0000e+00
			12.8		4.8593e+00		1.0000e+00
			12.85		5.7082e+00		1.0000e+00
			12.9		6.5572e+00		1.0000e+00
			12.95		7.4062e+00		1.0000e+00
			13.0		8.2552e+00		1.0000e+00
			13.05		8.5252e+00		1.0000e+00
			13.1		8.7952e+00		1.0000e+00
			13.15		9.0653e+00		1.0000e+00
			13.2		9.3353e+00		1.0000e+00
			13.25		9.1086e+00		1.0000e+00
			13.3		8.8819e+00		1.0000e+00
			13.35		8.6552e+00		1.0000e+00
			13.4		8.4285e+00		1.0000e+00
			13.45		7.5961e+00		1.0000e+00
			13.5		6.7636e+00		1.0000e+00
			13.55		5.9311e+00		1.0000e+00
			13.6		5.0986e+00		1.0000e+00
			13.65		4.7370e+00		1.0000e+00
			13.7		4.3753e+00		1.0000e+00
			13.75		4.0137e+00		1.0000e+00
			13.8		3.6520e+00		1.0000e+00
			13.85		3.6936e+00		1.0000e+00
			13.9		3.7352e+00		1.0000e+00
			13.95		3.7768e+00		1.0000e+00
			14.0		3.8184e+00		1.0000e+00
			14.05		4.3867e+00		1.0000e+00
			14.1		4.9550e+00		1.0000e+00
			14.15		5.5233e+00		1.0000e+00
			14.2		6.0917e+00		1.0000e+00
			14.25		6.8295e+00		1.0000e+00
			14.3		7.5674e+00		1.0000e+00
			14.35		8.3052e+00		1.0000e+00
			14.4		9.0431e+00		1.0000e+00
			14.45		9.1883e+00		1.0000e+00
			14.5		9.3336e+00		1.0000e+00
			14.55		9.4789e+00		1.0000e+00
			14.6		9.6242e+00		1.0000e+00
			14.65		9.2023e+00		1.0000e+00
			14.7		8.7804e+00		1.0000e+00
			14.75		8.3585e+00		1.0000e+00
			14.8		7.9365e+00		1.0000e+00
			14.85		7.1202e+00		1.0000e+00
			14.9		6.3038e+00		1.0000e+00
			14.95		5.4874e+00		1.0000e+00
			15.0		4.6710e+00		1.0000e+00
			15.05		4.4563e+00		1.0000e+00
			15.1		4.2415e+00		1.0000e+00
			15.15		4.0267e+00		1.0000e+00
			15.2		3.8120e+00		1.0000e+00
			15.25		3.9442e+00		1.0000e+00
			15.3		4.0764e+00		1.0000e+00
			15.35		4.2086e+00		1.0000e+00
			15.4		4.3408e+00		1.0000e+00
			15.45		5.1013e+00		1.0000e+00
			15.5		5.8617e+00		1.0000e+00
			15.55		6.6222e+00		1.0000e+00
			15.6		7.3826e+00		1.0000e+00
			15.65		7.9575e+00		1.0000e+00
			15.7		8.5323e+00		1.0000e+00
			15.75		9.1071e+00		1.0000e+00
			15.8		9.6819e+00		1.0000e+00
			15.85		9.6782e+00		1.0000e+00
			15.9		9.6744e+00		1.0000e+00
			15.95		9.6707e+00		1.0000e+00
			16.0		9.6670e+00		1.0000e+00
			16.05		9.0633e+00		1.0000e+00
			16.1		8.4597e+00		1.0000e+00
			16.15		7.8561e+00		1.0000e+00
			16.2		7.2524e+00		1.0000e+00
			16.25		6.5759e+00		1.0000e+00
			16.3		5.8993e+00		1.0000e+00
			16.35		5.2227e+00		1.0000e+00
			16.4		4.5461e+00		1.0000e+00
			16.45		4.4273e+00		1.0000e+00
			16.5		4.3085e+00		1.0000e+00
			16.55		4.1897e+00		1.0000e+00
			16.6		4.0709e+00		1.0000e+00
			16.65		4.3280e+00		1.0000e+00
			16.7		4.5851e+00		1.0000e+00
			16.75		4.8422e+00		1.0000e+00
			16.8		5.0993e+00		1.0000e+00
			16.85		5.9267e+00		1.0000e+00
			16.9		6.7542e+00		1.0000e+00
			16.95		7.5816e+00		1.0000e+00
			17.0		8.4090e+00		1.0000e+00
			17.05		8.7921e+00		1.0000e+00
			17.1		9.1752e+00		1.0000e+00
			17.15		9.5584e+00		1.0000e+00
			17.2		9.9415e+00		1.0000e+00
			17.25		9.8121e+00		1.0000e+00
			17.3		9.6827e+00		1.0000e+00
			17.35		9.5533e+00		1.0000e+00
			17.4		9.4239e+00		1.0000e+00
			17.45		8.6872e+00		1.0000e+00
			17.5		7.9504e+00		1.0000e+00
			17.55		7.2137e+00		1.0000e+00
			17.6		6.4769e+00		1.0000e+00
			17.65		5.9935e+00		1.0000e+00
			17.7		5.5100e+00		1.0000e+00
			17.75		5.0266e+00		1.0000e+00
			17.8		4.5431e+00		1.0000e+00
			17.85		4.5015e+00		1.0000e+00
			17.9		4.4598e+00		1.0000e+00
			17.95		4.4182e+00		1.0000e+00
			18.0		4.3765e+00		1.0000e+00
			18.05		4.7648e+00		1.0000e+00
			18.1		5.1530e+00		1.0000e+00
			18.15		5.5412e+00		1.0000e+00
			18.2		5.9294e+00		1.0000e+00
			18.25		6.7459e+00		1.0000e+00
			18.3		7.5625e+00		1.0000e+00
			18.35		8.3790e+00		1.0000e+00
			18.4		9.1956e+00		1.0000e+00
			18.45		9.4379e+00		1.0000e+00
			18.5		9.6802e+00		1.0000e+00
			18.55		9.9225e+00		1.0000e+00
			18.6		1.0165e+01		1.0000e+00
			18.65		9.9384e+00		1.0000e+00
			18.7		9.7120e+00		1.0000e+00
			18.75		9.4856e+00		1.0000e+00
			18.8		9.2592e+00		1.0000e+00
			18.85		8.4383e+00		1.0000e+00
			18.9		7.6174e+00		1.0000e+00
			18.95		6.7965e+00		1.0000e+00
			19.0		5.9756e+00		1.0000e+00
			19.05		5.5988e+00		1.0000e+00
			19.1		5.2220e+00		1.0000e+00
			19.15		4.8452e+00		1.0000e+00
			19.2		4.4684e+00		1.0000e+00
			19.25		4.5036e+00		1.0000e+00
			19.3		4.5388e+00		1.0000e+00
			19.35		4.5741e+00		1.0000e+00
			19.4		4.6093e+00		1.0000e+00
			19.45		5.1703e+00		1.0000e+00
			19.5		5.7313e+00		1.0000e+00
			19.55		6.2923e+00		1.0000e+00
			19.6		6.8533e+00		1.0000e+00
			19.65		7.5936e+00		1.0000e+00
			19.7		8.3339e+00		1.0000e+00
			19.75		9.0742e+00		1.0000e+00
			19.8		9.8145e+00		1.0000e+00
			19.85		9.9541e+00		1.0000e+00
			19.9		1.0094e+01		1.0000e+00
			19.95		1.0233e+01		1.0000e+00
			20.0		1.0373e+01		1.0000e+00
			20.05		9.9253e+00		1.0000e+00
			20.1		9.4778e+00		1.0000e+00
			20.15		9.0303e+00		1.0000e+00
			20.2		8.5829e+00		1.0000e+00
			20.25		7.7419e+00		1.0000e+00
			20.3		6.9010e+00		1.0000e+00
			20.35		6.0601e+00		1.0000e+00
			20.4		5.2191e+00		1.0000e+00
			20.45		5.0123e+00		1.0000e+00
			20.5		4.8055e+00		1.0000e+00
			20.55		4.5987e+00		1.0000e+00
			20.6		4.3919e+00		1.0000e+00
			20.65		4.5429e+00		1.0000e+00
			20.7		4.6938e+00		1.0000e+00
			20.75		4.8448e+00		1.0000e+00
			20.8		4.9958e+00		1.0000e+00
			20.85		5.7747e+00		1.0000e+00
			20.9		6.5536e+00		1.0000e+00
			20.95		7.3324e+00		1.0000e+00
			21.0		8.1113e+00		1.0000e+00
			21.05		8.6703e+00		1.0000e+00
			21.1		9.2293e+00		1.0000e+00
			21.15		9.7884e+00		1.0000e+00
			21.2		1.0347e+01		1.0000e+00
			21.25		1.0303e+01		1.0000e+00
			21.3		1.0259e+01		1.0000e+00
			21.35		1.0215e+01		1.0000e+00
			21.4		1.0170e+01		1.0000e+00
			21.45		9.5377e+00		1.0000e+00
			21.5		8.9050e+00		1.0000e+00
			21.55		8.2723e+00		1.0000e+00
			21.6		7.6396e+00		1.0000e+00
			21.65		6.9671e+00		1.0000e+00
			21.7		6.2946e+00		1.0000e+00
			21.75		5.6221e+00		1.0000e+00
			21.8		4.9496e+00		1.0000e+00
			21.85		4.8513e+00		1.0000e+00
			21.9		4.7530e+00		1.0000e+00
			21.95		4.6547e+00		1.0000e+00
			22.0		4.5564e+00		1.0000e+00
			22.05		4.8326e+00		1.0000e+00
			22.1		5.1089e+00		1.0000e+00
			22.15		5.3851e+00		1.0000e+00
			22.2		5.6614e+00		1.0000e+00
			22.25		6.4757e+00		1.0000e+00
			22.3		7.2900e+00		1.0000e+00
			22.35		8.1043e+00		1.0000e+00
			22.4		8.9186e+00		1.0000e+00
			22.45		9.2685e+00		1.0000e+00
			22.5		9.6184e+00		1.0000e+00
			22.55		9.9682e+00		1.0000e+00
			22.6		1.0318e+01		1.0000e+00
			22.65		1.0156e+01		1.0000e+00
			22.7		9.9946e+00		1.0000e+00
			22.75		9.8329e+00		1.0000e+00
			22.8		9.6712e+00		1.0000e+00
			22.85		8.9230e+00		1.0000e+00
			22.9		8.1749e+00		1.0000e+00
			22.95		7.4268e+00		1.0000e+00
			23.0		6.6786e+00		1.0000e+00
			23.05		6.2148e+00		1.0000e+00
			23.1		5.7509e+00		1.0000e+00
			23.15		5.2870e+00		1.0000e+00
			23.2		4.8231e+00		1.0000e+00
			23.25		4.7986e+00		1.0000e+00
			23.3		4.7740e+00		1.0000e+00
			23.35		4.7494e+00		1.0000e+00
			23.4		4.7248e+00		1.0000e+00
			23.45		5.1281e+00		1.0000e+00
			23.5		5.5313e+00		1.0000e+00
			23.55		5.9346e+00		1.0000e+00
			23.6		6.3378e+00		1.0000e+00
			23.65		7.1321e+00		1.0000e+00
			23.7		7.9264e+00		1.0000e+00
			23.75		8.7207e+00		1.0000e+00
			23.8		9.5150e+00		1.0000e+00
			23.85		9.7300e+00		1.0000e+00
			23.9		9.9451e+00		1.0000e+00
			23.95		1.0160e+01		1.0000e+00
			24.0		1.0375e+01		1.0000e+00
			24.05		1.0110e+01		1.0000e+00
			24.1		9.8458e+00		1.0000e+00
			24.15		9.5811e+00		1.0000e+00
			24.2		9.3164e+00		1.0000e+00
			24.25		8.4969e+00		1.0000e+00
			24.3		7.6773e+00		1.0000e+00
			24.35		6.8578e+00		1.0000e+00
			24.4		6.0383e+00		1.0000e+00
			24.45		5.6908e+00		1.0000e+00
			24.5		5.3434e+00		1.0000e+00
			24.55		4.9959e+00		1.0000e+00
			24.6		4.6485e+00		1.0000e+00
			24.65		4.7097e+00		1.0000e+00
			24.7		4.7709e+00		1.0000e+00
			24.75		4.8322e+00		1.0000e+00
			24.8		4.8934e+00		1.0000e+00
			24.85		5.4643e+00		1.0000e+00
			24.9		6.0352e+00		1.0000e+00
			24.95		6.6061e+00		1.0000e+00
			25.0		7.1770e+00		1.0000e+00
			25.05		7.8613e+00		1.0000e+00
			25.1		8.5456e+00		1.0000e+00
			25.15		9.2300e+00		1.0000e+00
			25.2		9.9143e+00		1.0000e+00
			25.25		1.0008e+01		1.0000e+00
			25.3		1.0102e+01		1.0000e+00
			25.35		1.0196e+01		1.0000e+00
			25.4		1.0289e+01		1.0000e+00
			25.45		9.8269e+00		1.0000e+00
			25.5		9.3643e+00		1.0000e+00
			25.55		8.9018e+00		1.0000e+00
			25.6		8.4392e+00		1.0000e+00
			25.65		7.6487e+00		1.0000e+00
			25.7		6.8583e+00		1.0000e+00
			25.75		6.0678e+00		1.0000e+00
			25.8		5.2774e+00		1.0000e+00
			25.85		5.1009e+00		1.0000e+00
			25.9		4.9245e+00		1.0000e+00
			25.95		4.7480e+00		1.0000e+00
			26.0		4.5716e+00		1.0000e+00
			26.05		4.7276e+00		1.0000e+00
			26.1		4.8836e+00		1.0000e+00
			26.15		5.0395e+00		1.0000e+00
			26.2		5.1955e+00		1.0000e+00
			26.25		5.9250e+00		1.0000e+00
			26.3		6.6545e+00		1.0000e+00
			26.35		7.3839e+00		1.0000e+00
			26.4		8.1134e+00		1.0000e+00
			26.45		8.6402e+00		1.0000e+00
			26.5		9.1670e+00		1.0000e+00
			26.55		9.6938e+00		1.0000e+00
			26.6		1.0221e+01		1.0000e+00
			26.65		1.0180e+01		1.0000e+00
			26.7		1.0140e+01		1.0000e+00
			26.75		1.0099e+01		1.0000e+00
			26.8		1.0059e+01		1.0000e+00
			26.85		9.4696e+00		1.0000e+00
			26.9		8.8803e+00		1.0000e+00
			26.95		8.2910e+00		1.0000e+00
			27.0		7.7017e+00		1.0000e+00
			27.05		7.0484e+00		1.0000e+00
			27.1		6.3952e+00		1.0000e+00
			27.15		5.7419e+00		1.0000e+00
			27.2		5.0887e+00		1.0000e+00
			27.25		4.9725e+00		1.0000e+00
			27.3		4.8564e+00		1.0000e+00
			27.35		4.7403e+00		1.0000e+00
			27.4		4.6241e+00		1.0000e+00
			27.45		4.8685e+00		1.0000e+00
			27.5		5.1128e+00		1.0000e+00
			27.55		5.3572e+00		1.0000e+00
			27.6		5.6015e+00		1.0000e+00
			27.65		6.4162e+00		1.0000e+00
			27.7		7.2308e+00		1.0000e+00
			27.75		8.0454e+00		1.0000e+00
			27.8		8.8601e+00		1.0000e+00
			27.85		9.2373e+00		1.0000e+00
			27.9		9.6146e+00		1.0000e+00
			27.95		9.9919e+00		1.0000e+00
			28.0		1.0369e+01		1.0000e+00
			28.05		1.0225e+01		1.0000e+00
			28.1		1.0082e+01		1.0000e+00
			28.15		9.9380e+00		1.0000e+00
			28.2		9.7943e+00		1.0000e+00
			28.25		9.0271e+00		1.0000e+00
			28.3		8.2599e+00		1.0000e+00
			28.35		7.4927e+00		1.0000e+00
			28.4		6.7255e+00		1.0000e+00
			28.45		6.2129e+00		1.0000e+00
			28.5		5.7003e+00		1.0000e+00
			28.55		5.1877e+00		1.0000e+00
			28.6		4.6750e+00		1.0000e+00
			28.65		4.6422e+00		1.0000e+00
			28.7		4.6094e+00		1.0000e+00
			28.75		4.5766e+00		1.0000e+00
			28.8		4.5438e+00		1.0000e+00
			28.85		4.9707e+00		1.0000e+00
			28.9		5.3976e+00		1.0000e+00
			28.95		5.8246e+00		1.0000e+00
			29.0		6.2515e+00		1.0000e+00
			29.05		7.0911e+00		1.0000e+00
			29.1		7.9307e+00		1.0000e+00
			29.15		8.7702e+00		1.0000e+00
			29.2		9.6098e+00		1.0000e+00
			29.25		9.8180e+00		1.0000e+00
			29.3		1.0026e+01		1.0000e+00
			29.35		1.0234e+01		1.0000e+00
			29.4		1.0443e+01		1.0000e+00
			29.45		1.0135e+01		1.0000e+00
			29.5		9.8276e+00		1.0000e+00
			29.55		9.5200e+00		1.0000e+00
			29.6		9.2124e+00		1.0000e+00
			29.65		8.3353e+00		1.0000e+00
			29.7		7.4583e+00		1.0000e+00
			29.75		6.5812e+00		1.0000e+00
			29.8		5.7041e+00		1.0000e+00
			29.85		5.3706e+00		1.0000e+00
			29.9		5.0371e+00		1.0000e+00
			29.95		4.7036e+00		1.0000e+00
			30.0		4.3702e+00		1.0000e+00
			30.05		4.4624e+00		1.0000e+00
			30.1		4.5547e+00		1.0000e+00
			30.15		4.6470e+00		1.0000e+00
			30.2		4.7393e+00		1.0000e+00
			30.25		5.3583e+00		1.0000e+00
			30.3		5.9772e+00		1.0000e+00
			30.35		6.5962e+00		1.0000e+00
			30.4		7.2152e+00		1.0000e+00
			30.45		7.8877e+00		1.0000e+00
			30.5		8.5602e+00		1.0000e+00
			30.55		9.2327e+00		1.0000e+00
			30.6		9.9052e+00		1.0000e+00
			30.65		9.9557e+00		1.0000e+00
			30.7		1.0006e+01		1.0000e+00
			30.75		1.0057e+01		1.0000e+00
			30.8		1.0107e+01		1.0000e+00
			30.85		9.6065e+00		1.0000e+00
			30.9		9.1059e+00		1.0000e+00
			30.95		8.6054e+00		1.0000e+00
			31.0		8.1048e+00		1.0000e+00
			31.05		7.3069e+00		1.0000e+00
			31.1		6.5090e+00		1.0000e+00
			31.15		5.7111e+00		1.0000e+00
			31.2		4.9132e+00		1.0000e+00
			31.25		4.7565e+00		1.0000e+00
			31.3		4.5997e+00		1.0000e+00
			31.35		4.4429e+00		1.0000e+00
			31.4		4.2862e+00		1.0000e+00
			31.45		4.4565e+00		1.0000e+00
			31.5		4.6269e+00		1.0000e+00
			31.55		4.7972e+00		1.0000e+00
			31.6		4.9676e+00		1.0000e+00
			31.65		5.7068e+00		1.0000e+00
			31.7		6.4460e+00		1.0000e+00
			31.75		7.1853e+00		1.0000e+00
			31.8		7.9245e+00		1.0000e+00
			31.85		8.4242e+00		1.0000e+00
			31.9		8.9240e+00		1.0000e+00
			31.95		9.4237e+00		1.0000e+00
			32.0		9.9235e+00		1.0000e+00
			32.05		9.8547e+00		1.0000e+00
			32.1		9.7859e+00		1.0000e+00
			32.15		9.7171e+00		1.0000e+00
			32.2		9.6483e+00		1.0000e+00
			32.25		9.0262e+00		1.0000e+00
			32.3		8.4041e+00		1.0000e+00
			32.35		7.7820e+00		1.0000e+00
			32.4		7.1599e+00		1.0000e+00
			32.45		6.5108e+00		1.0000e+00
			32.5		5.8617e+00		1.0000e+00
			32.55		5.2126e+00		1.0000e+00
			32.6		4.5635e+00		1.0000e+00
			32.65		4.4646e+00		1.0000e+00
			32.7		4.3657e+00		1.0000e+00
			32.75		4.2668e+00		1.0000e+00
			32.8		4.1679e+00		1.0000e+00
			32.85		4.4338e+00		1.0000e+00
			32.9		4.6997e+00		1.0000e+00
			32.95		4.9655e+00		1.0000e+00
			33.0		5.2314e+00		1.0000e+00
			33.05		6.0478e+00		1.0000e+00
			33.1		6.8642e+00		1.0000e+00
			33.15		7.6806e+00		1.0000e+00
			33.2		8.4970e+00		1.0000e+00
			33.25		8.8431e+00		1.0000e+00
			33.3		9.1892e+00		1.0000e+00
			33.35		9.5353e+00		1.0000e+00
			33.4		9.8814e+00		1.0000e+00
			33.45		9.7035e+00		1.0000e+00
			33.5		9.5256e+00		1.0000e+00
			33.55		9.3477e+00		1.0000e+00
			33.6		9.1697e+00		1.0000e+00
			33.65		8.3838e+00		1.0000e+00
			33.7		7.5978e+00		1.0000e+00
			33.75		6.8118e+00		1.0000e+00
			33.8		6.0259e+00		1.0000e+00
			33.85		5.5289e+00		1.0000e+00
			33.9		5.0319e+00		1.0000e+00
			33.95		4.5349e+00		1.0000e+00
			34.0		4.0379e+00		1.0000e+00
			34.05		4.0290e+00		1.0000e+00
			34.1		4.0202e+00		1.0000e+00
			34.15		4.0113e+00		1.0000e+00
			34.2		4.0024e+00		1.0000e+00
			34.25		4.4315e+00		1.0000e+00
			34.3		4.8606e+00		1.0000e+00
			34.35		5.2897e+00		1.0000e+00
			34.4		5.7187e+00		1.0000e+00
			34.45		6.5301e+00		1.0000e+00
			34.5		7.3415e+00		1.0000e+00
			34.55		8.1529e+00		1.0000e+00
			34.6		8.9643e+00		1.0000e+00
			34.65		9.1391e+00		1.0000e+00
			34.7		9.3138e+00		1.0000e+00
			34.75		9.4885e+00		1.0000e+00
			34.8		9.6632e+00		1.0000e+00
			34.85		9.3392e+00		1.0000e+00
			34.9		9.0153e+00		1.0000e+00
			34.95		8.6913e+00		1.0000e+00
			35.0		8.3673e+00		1.0000e+00
			35.05		7.5026e+00		1.0000e+00
			35.1		6.6379e+00		1.0000e+00
			35.15		5.7732e+00		1.0000e+00
			35.2		4.9085e+00		1.0000e+00
			35.25		4.5843e+00		1.0000e+00
			35.3		4.2601e+00		1.0000e+00
			35.35		3.9360e+00		1.0000e+00
			35.4		3.6118e+00		1.0000e+00
			35.45		3.7019e+00		1.0000e+00
			35.5		3.7920e+00		1.0000e+00
			35.55		3.8821e+00		1.0000e+00
			35.6		3.9722e+00		1.0000e+00
			35.65		4.5745e+00		1.0000e+00
			35.7		5.1767e+00		1.0000e+00
			35.75		5.7790e+00		1.0000e+00
			35.8		6.3812e+00		1.0000e+00
			35.85		7.0529e+00		1.0000e+00
			35.9		7.7246e+00		1.0000e+00
			35.95		8.3962e+00		1.0000e+00
			36.0		9.0679e+00		1.0000e+00
			36.05		9.1120e+00		1.0000e+00
			36.1		9.1561e+00		1.0000e+00
			36.15		9.2002e+00		1.0000e+00
			36.2		9.2443e+00		1.0000e+00
			36.25		8.7340e+00		1.0000e+00
			36.3		8.2237e+00		1.0000e+00
			36.35		7.7133e+00		1.0000e+00
			36.4		7.2030e+00		1.0000e+00
			36.45		6.3874e+00		1.0000e+00
			36.5		5.5718e+00		1.0000e+00
			36.55		4.7563e+00		1.0000e+00
			36.6		3.9407e+00		1.0000e+00
			36.65		3.7648e+00		1.0000e+00
			36.7		3.5888e+00		1.0000e+00
			36.75		3.4129e+00		1.0000e+00
			36.8		3.2369e+00		1.0000e+00
			36.85		3.4100e+00		1.0000e+00
			36.9		3.5830e+00		1.0000e+00
			36.95		3.7561e+00		1.0000e+00
			37.0		3.9291e+00		1.0000e+00
			37.05		4.6906e+00		1.0000e+00
			37.1		5.4522e+00		1.0000e+00
			37.15		6.2137e+00		1.0000e+00
			37.2		6.9752e+00		1.0000e+00
			37.25		7.4755e+00		1.0000e+00
			37.3		7.9758e+00		1.0000e+00
			37.35		8.4761e+00		1.0000e+00
			37.4		8.9764e+00		1.0000e+00
			37.45		8.8620e+00		1.0000e+00
			37.5		8.7476e+00		1.0000e+00
			37.55		8.6332e+00		1.0000e+00
			37.6		8.5188e+00		1.0000e+00
			37.65		7.8276e+00		1.0000e+00
			37.7		7.1363e+00		1.0000e+00
			37.75		6.4450e+00		1.0000e+00
			37.8		5.7537e+00		1.0000e+00
			37.85		5.0274e+00		1.0000e+00
			37.9		4.3011e+00		1.0000e+00
			37.95		3.5749e+00		1.0000e+00
			38.0		2.8486e+00		1.0000e+00
			38.05		2.6355e+00		1.0000e+00
			38.1		2.4225e+00		1.0000e+00
			38.15		2.2095e+00		1.0000e+00
			38.2		1.9964e+00		1.0000e+00
			38.25		1.9409e+00		1.0000e+00
			38.3		1.8854e+00		1.0000e+00
			38.35		1.8299e+00		1.0000e+00
			38.4		1.7744e+00		1.0000e+00
			38.45		1.7189e+00		1.0000e+00
			38.5		1.6634e+00		1.0000e+00
			38.55		1.6080e+00		1.0000e+00
			38.6		1.5525e+00		1.0000e+00
			38.65		1.5345e+00		1.0000e+00
			38.7		1.5165e+00		1.0000e+00
			38.75		1.4985e+00		1.0000e+00
			38.8		1.4805e+00		1.0000e+00
			38.85		1.4625e+00		1.0000e+00
			38.9		1.4445e+00		1.0000e+00
			38.95		1.4265e+00		1.0000e+00
			39.0		1.4085e+00		1.0000e+00
			39.05		1.3905e+00		1.0000e+00
			39.1		1.3725e+00		1.0000e+00
			39.15		1.3545e+00		1.0000e+00
			39.2		1.3366e+00		1.0000e+00
			39.25		1.3186e+00		1.0000e+00
			39.3		1.3006e+00		1.0000e+00
			39.35		1.2826e+00		1.0000e+00
			39.4		1.2647e+00		1.0000e+00
			39.45		1.2535e+00		1.0000e+00
			39.5		1.2424e+00		1.0000e+00
			39.55		1.2313e+00		1.0000e+00
			39.6		1.2201e+00		1.0000e+00
			39.65		1.2090e+00		1.0000e+00
