BEGIN_SCAN_DATA
	FORMAT=CC-Export V1.9                  
	FILE_CREATION_DATE=
	LAST_MODIFIED=11-Jan-2023 11:56:56
	BEGIN_SCAN  1
		TASK_NAME=RayStation Phantom Profiles & PDDs
		PROGRAM=RayStation
		COMMENT=RayStation Script Export
		MEAS_DATE=11-Jan-2023 11:56:56
		LINAC=RayStation
		MODALITY=X
		ISOCENTER=1000.00
		INPLANE_AXIS=Y
		CROSSPLANE_AXIS=X
		DEPTH_AXIS=Z
		INPLANE_AXIS_DIR=GUN_TARGET
		CROSSPLANE_AXIS_DIR=LEFT_RIGHT
		DEPTH_AXIS_DIR=UP_DOWN
		ENERGY=6.3
		NOMINAL_DMAX=20.00
		SSD=1000.0
		SCD=1000.00
		WEDGE_ANGLE=0.00
		FIELD_INPLANE=200.0
		FIELD_CROSSPLANE=200.0
		FIELD_TYPE=IRREGULAR
		GANTRY=0.00
		GANTRY_UPRIGHT_POSITION=0
		GANTRY_ROTATION=CW
		COLL_ANGLE=0.00
		REF_FIELD_DEPTH=50.00
		REF_FIELD_DEFINED=ISOCENTER
		FIELD_INPLANE=200.0
		FIELD_CROSSPLANE=200.0
		SCAN_CURVETYPE=CROSSPLANE_PROFILE
		SCAN_DEPTH=200.0
		SCAN_OFFAXIS_INPLANE=0.00
		SCAN_OFFAXIS_CROSSPLANE=0.00
		SCAN_ANGLE=0.00
		SCAN_DIAGONAL=NOT_DIAGONAL
		SCAN_DIRECTION=NEGATIVE
		MEAS_MEDIUM=WATER
		MEAS_UNIT=cGy
		INCLINATION_ANGLE=0.00
		PRESSURE=1013.20
		TEMPERATURE=20.00
		NORM_TEMPERATURE=20.00
		CORRECTION_FACTOR=1.0000;
		BEGIN_DATA
			-30.05		3.3402e-04		1.0000e+00
			-30.0		5.0103e-04		1.0000e+00
			-29.95		6.6802e-04		1.0000e+00
			-29.9		6.9017e-04		1.0000e+00
			-29.85		7.1233e-04		1.0000e+00
			-29.8		7.3448e-04		1.0000e+00
			-29.75		7.5663e-04		1.0000e+00
			-29.7		7.8112e-04		1.0000e+00
			-29.65		8.0561e-04		1.0000e+00
			-29.6		8.3011e-04		1.0000e+00
			-29.55		8.5460e-04		1.0000e+00
			-29.5		8.7478e-04		1.0000e+00
			-29.45		8.9497e-04		1.0000e+00
			-29.4		9.1516e-04		1.0000e+00
			-29.35		9.3535e-04		1.0000e+00
			-29.3		9.6798e-04		1.0000e+00
			-29.25		1.0006e-03		1.0000e+00
			-29.2		1.0332e-03		1.0000e+00
			-29.15		1.0659e-03		1.0000e+00
			-29.1		1.0848e-03		1.0000e+00
			-29.05		1.1038e-03		1.0000e+00
			-29.0		1.1227e-03		1.0000e+00
			-28.95		1.1416e-03		1.0000e+00
			-28.9		1.1768e-03		1.0000e+00
			-28.85		1.2120e-03		1.0000e+00
			-28.8		1.2472e-03		1.0000e+00
			-28.75		1.2823e-03		1.0000e+00
			-28.7		1.2951e-03		1.0000e+00
			-28.65		1.3079e-03		1.0000e+00
			-28.6		1.3207e-03		1.0000e+00
			-28.55		1.3334e-03		1.0000e+00
			-28.5		1.3675e-03		1.0000e+00
			-28.45		1.4016e-03		1.0000e+00
			-28.4		1.4358e-03		1.0000e+00
			-28.35		1.4699e-03		1.0000e+00
			-28.3		1.4917e-03		1.0000e+00
			-28.25		1.5135e-03		1.0000e+00
			-28.2		1.5353e-03		1.0000e+00
			-28.15		1.5572e-03		1.0000e+00
			-28.1		1.5893e-03		1.0000e+00
			-28.05		1.6215e-03		1.0000e+00
			-28.0		1.6537e-03		1.0000e+00
			-27.95		1.6858e-03		1.0000e+00
			-27.9		1.7259e-03		1.0000e+00
			-27.85		1.7659e-03		1.0000e+00
			-27.8		1.8060e-03		1.0000e+00
			-27.75		1.8460e-03		1.0000e+00
			-27.7		1.8732e-03		1.0000e+00
			-27.65		1.9004e-03		1.0000e+00
			-27.6		1.9276e-03		1.0000e+00
			-27.55		1.9548e-03		1.0000e+00
			-27.5		2.0176e-03		1.0000e+00
			-27.45		2.0804e-03		1.0000e+00
			-27.4		2.1432e-03		1.0000e+00
			-27.35		2.2060e-03		1.0000e+00
			-27.3		2.2299e-03		1.0000e+00
			-27.25		2.2538e-03		1.0000e+00
			-27.2		2.2777e-03		1.0000e+00
			-27.15		2.3017e-03		1.0000e+00
			-27.1		2.3877e-03		1.0000e+00
			-27.05		2.4738e-03		1.0000e+00
			-27.0		2.5599e-03		1.0000e+00
			-26.95		2.6459e-03		1.0000e+00
			-26.9		2.6791e-03		1.0000e+00
			-26.85		2.7124e-03		1.0000e+00
			-26.8		2.7456e-03		1.0000e+00
			-26.75		2.7788e-03		1.0000e+00
			-26.7		2.8771e-03		1.0000e+00
			-26.65		2.9753e-03		1.0000e+00
			-26.6		3.0735e-03		1.0000e+00
			-26.55		3.1718e-03		1.0000e+00
			-26.5		3.2344e-03		1.0000e+00
			-26.45		3.2969e-03		1.0000e+00
			-26.4		3.3595e-03		1.0000e+00
			-26.35		3.4221e-03		1.0000e+00
			-26.3		3.5166e-03		1.0000e+00
			-26.25		3.6111e-03		1.0000e+00
			-26.2		3.7056e-03		1.0000e+00
			-26.15		3.8001e-03		1.0000e+00
			-26.1		3.9178e-03		1.0000e+00
			-26.05		4.0355e-03		1.0000e+00
			-26.0		4.1532e-03		1.0000e+00
			-25.95		4.2710e-03		1.0000e+00
			-25.9		4.3497e-03		1.0000e+00
			-25.85		4.4285e-03		1.0000e+00
			-25.8		4.5073e-03		1.0000e+00
			-25.75		4.5861e-03		1.0000e+00
			-25.7		4.7778e-03		1.0000e+00
			-25.65		4.9695e-03		1.0000e+00
			-25.6		5.1612e-03		1.0000e+00
			-25.55		5.3529e-03		1.0000e+00
			-25.5		5.4239e-03		1.0000e+00
			-25.45		5.4949e-03		1.0000e+00
			-25.4		5.5659e-03		1.0000e+00
			-25.35		5.6369e-03		1.0000e+00
			-25.3		5.9027e-03		1.0000e+00
			-25.25		6.1686e-03		1.0000e+00
			-25.2		6.4344e-03		1.0000e+00
			-25.15		6.7002e-03		1.0000e+00
			-25.1		6.7997e-03		1.0000e+00
			-25.05		6.8993e-03		1.0000e+00
			-25.0		6.9988e-03		1.0000e+00
			-24.95		7.0984e-03		1.0000e+00
			-24.9		7.3970e-03		1.0000e+00
			-24.85		7.6956e-03		1.0000e+00
			-24.8		7.9942e-03		1.0000e+00
			-24.75		8.2927e-03		1.0000e+00
			-24.7		8.4789e-03		1.0000e+00
			-24.65		8.6651e-03		1.0000e+00
			-24.6		8.8512e-03		1.0000e+00
			-24.55		9.0374e-03		1.0000e+00
			-24.5		9.3199e-03		1.0000e+00
			-24.45		9.6024e-03		1.0000e+00
			-24.4		9.8849e-03		1.0000e+00
			-24.35		1.0167e-02		1.0000e+00
			-24.3		1.0519e-02		1.0000e+00
			-24.25		1.0871e-02		1.0000e+00
			-24.2		1.1223e-02		1.0000e+00
			-24.15		1.1575e-02		1.0000e+00
			-24.1		1.1808e-02		1.0000e+00
			-24.05		1.2041e-02		1.0000e+00
			-24.0		1.2275e-02		1.0000e+00
			-23.95		1.2508e-02		1.0000e+00
			-23.9		1.3074e-02		1.0000e+00
			-23.85		1.3640e-02		1.0000e+00
			-23.8		1.4206e-02		1.0000e+00
			-23.75		1.4773e-02		1.0000e+00
			-23.7		1.4978e-02		1.0000e+00
			-23.65		1.5182e-02		1.0000e+00
			-23.6		1.5387e-02		1.0000e+00
			-23.55		1.5592e-02		1.0000e+00
			-23.5		1.6361e-02		1.0000e+00
			-23.45		1.7129e-02		1.0000e+00
			-23.4		1.7897e-02		1.0000e+00
			-23.35		1.8666e-02		1.0000e+00
			-23.3		1.8945e-02		1.0000e+00
			-23.25		1.9225e-02		1.0000e+00
			-23.2		1.9504e-02		1.0000e+00
			-23.15		1.9784e-02		1.0000e+00
			-23.1		2.0631e-02		1.0000e+00
			-23.05		2.1478e-02		1.0000e+00
			-23.0		2.2325e-02		1.0000e+00
			-22.95		2.3172e-02		1.0000e+00
			-22.9		2.3684e-02		1.0000e+00
			-22.85		2.4195e-02		1.0000e+00
			-22.8		2.4707e-02		1.0000e+00
			-22.75		2.5218e-02		1.0000e+00
			-22.7		2.6004e-02		1.0000e+00
			-22.65		2.6789e-02		1.0000e+00
			-22.6		2.7574e-02		1.0000e+00
			-22.55		2.8360e-02		1.0000e+00
			-22.5		2.9305e-02		1.0000e+00
			-22.45		3.0249e-02		1.0000e+00
			-22.4		3.1194e-02		1.0000e+00
			-22.35		3.2139e-02		1.0000e+00
			-22.3		3.2758e-02		1.0000e+00
			-22.25		3.3377e-02		1.0000e+00
			-22.2		3.3996e-02		1.0000e+00
			-22.15		3.4616e-02		1.0000e+00
			-22.1		3.6082e-02		1.0000e+00
			-22.05		3.7549e-02		1.0000e+00
			-22.0		3.9015e-02		1.0000e+00
			-21.95		4.0481e-02		1.0000e+00
			-21.9		4.1002e-02		1.0000e+00
			-21.85		4.1523e-02		1.0000e+00
			-21.8		4.2044e-02		1.0000e+00
			-21.75		4.2565e-02		1.0000e+00
			-21.7		4.4525e-02		1.0000e+00
			-21.65		4.6486e-02		1.0000e+00
			-21.6		4.8446e-02		1.0000e+00
			-21.55		5.0407e-02		1.0000e+00
			-21.5		5.1086e-02		1.0000e+00
			-21.45		5.1765e-02		1.0000e+00
			-21.4		5.2444e-02		1.0000e+00
			-21.35		5.3123e-02		1.0000e+00
			-21.3		5.5191e-02		1.0000e+00
			-21.25		5.7259e-02		1.0000e+00
			-21.2		5.9327e-02		1.0000e+00
			-21.15		6.1394e-02		1.0000e+00
			-21.1		6.2592e-02		1.0000e+00
			-21.05		6.3790e-02		1.0000e+00
			-21.0		6.4989e-02		1.0000e+00
			-20.95		6.6187e-02		1.0000e+00
			-20.9		6.8046e-02		1.0000e+00
			-20.85		6.9906e-02		1.0000e+00
			-20.8		7.1765e-02		1.0000e+00
			-20.75		7.3624e-02		1.0000e+00
			-20.7		7.5793e-02		1.0000e+00
			-20.65		7.7962e-02		1.0000e+00
			-20.6		8.0131e-02		1.0000e+00
			-20.55		8.2299e-02		1.0000e+00
			-20.5		8.3707e-02		1.0000e+00
			-20.45		8.5115e-02		1.0000e+00
			-20.4		8.6523e-02		1.0000e+00
			-20.35		8.7932e-02		1.0000e+00
			-20.3		9.1183e-02		1.0000e+00
			-20.25		9.4435e-02		1.0000e+00
			-20.2		9.7687e-02		1.0000e+00
			-20.15		1.0094e-01		1.0000e+00
			-20.1		1.0207e-01		1.0000e+00
			-20.05		1.0320e-01		1.0000e+00
			-20.0		1.0433e-01		1.0000e+00
			-19.95		1.0547e-01		1.0000e+00
			-19.9		2.1075e-01		1.0000e+00
			-19.85		3.1603e-01		1.0000e+00
			-19.8		4.2131e-01		1.0000e+00
			-19.75		5.2658e-01		1.0000e+00
			-19.7		5.3961e-01		1.0000e+00
			-19.65		5.5265e-01		1.0000e+00
			-19.6		5.6568e-01		1.0000e+00
			-19.55		5.7872e-01		1.0000e+00
			-19.5		5.9177e-01		1.0000e+00
			-19.45		6.0481e-01		1.0000e+00
			-19.4		6.1786e-01		1.0000e+00
			-19.35		6.3091e-01		1.0000e+00
			-19.3		6.4397e-01		1.0000e+00
			-19.25		6.5703e-01		1.0000e+00
			-19.2		6.7009e-01		1.0000e+00
			-19.15		6.8315e-01		1.0000e+00
			-19.1		6.9623e-01		1.0000e+00
			-19.05		7.0930e-01		1.0000e+00
			-19.0		7.2237e-01		1.0000e+00
			-18.95		7.3545e-01		1.0000e+00
			-18.9		7.4238e-01		1.0000e+00
			-18.85		7.4930e-01		1.0000e+00
			-18.8		7.5623e-01		1.0000e+00
			-18.75		7.6316e-01		1.0000e+00
			-18.7		7.7010e-01		1.0000e+00
			-18.65		7.7703e-01		1.0000e+00
			-18.6		7.8397e-01		1.0000e+00
			-18.55		7.9090e-01		1.0000e+00
			-18.5		7.9784e-01		1.0000e+00
			-18.45		8.0479e-01		1.0000e+00
			-18.4		8.1173e-01		1.0000e+00
			-18.35		8.1867e-01		1.0000e+00
			-18.3		8.2561e-01		1.0000e+00
			-18.25		8.3256e-01		1.0000e+00
			-18.2		8.3951e-01		1.0000e+00
			-18.15		8.4645e-01		1.0000e+00
			-18.1		8.5496e-01		1.0000e+00
			-18.05		8.6346e-01		1.0000e+00
			-18.0		8.7196e-01		1.0000e+00
			-17.95		8.8046e-01		1.0000e+00
			-17.9		8.8897e-01		1.0000e+00
			-17.85		8.9748e-01		1.0000e+00
			-17.8		9.0599e-01		1.0000e+00
			-17.75		9.1450e-01		1.0000e+00
			-17.7		9.2301e-01		1.0000e+00
			-17.65		9.3153e-01		1.0000e+00
			-17.6		9.4005e-01		1.0000e+00
			-17.55		9.4856e-01		1.0000e+00
			-17.5		9.5709e-01		1.0000e+00
			-17.45		9.6561e-01		1.0000e+00
			-17.4		9.7413e-01		1.0000e+00
			-17.35		9.8265e-01		1.0000e+00
			-17.3		9.9384e-01		1.0000e+00
			-17.25		1.0050e+00		1.0000e+00
			-17.2		1.0162e+00		1.0000e+00
			-17.15		1.0274e+00		1.0000e+00
			-17.1		1.0386e+00		1.0000e+00
			-17.05		1.0498e+00		1.0000e+00
			-17.0		1.0610e+00		1.0000e+00
			-16.95		1.0722e+00		1.0000e+00
			-16.9		1.0834e+00		1.0000e+00
			-16.85		1.0946e+00		1.0000e+00
			-16.8		1.1058e+00		1.0000e+00
			-16.75		1.1170e+00		1.0000e+00
			-16.7		1.1282e+00		1.0000e+00
			-16.65		1.1394e+00		1.0000e+00
			-16.6		1.1506e+00		1.0000e+00
			-16.55		1.1618e+00		1.0000e+00
			-16.5		1.1755e+00		1.0000e+00
			-16.45		1.1893e+00		1.0000e+00
			-16.4		1.2030e+00		1.0000e+00
			-16.35		1.2167e+00		1.0000e+00
			-16.3		1.2305e+00		1.0000e+00
			-16.25		1.2442e+00		1.0000e+00
			-16.2		1.2579e+00		1.0000e+00
			-16.15		1.2717e+00		1.0000e+00
			-16.1		1.2854e+00		1.0000e+00
			-16.05		1.2992e+00		1.0000e+00
			-16.0		1.3129e+00		1.0000e+00
			-15.95		1.3266e+00		1.0000e+00
			-15.9		1.3404e+00		1.0000e+00
			-15.85		1.3542e+00		1.0000e+00
			-15.8		1.3679e+00		1.0000e+00
			-15.75		1.3817e+00		1.0000e+00
			-15.7		1.3951e+00		1.0000e+00
			-15.65		1.4084e+00		1.0000e+00
			-15.6		1.4218e+00		1.0000e+00
			-15.55		1.4352e+00		1.0000e+00
			-15.5		1.4485e+00		1.0000e+00
			-15.45		1.4619e+00		1.0000e+00
			-15.4		1.4753e+00		1.0000e+00
			-15.35		1.4887e+00		1.0000e+00
			-15.3		1.5021e+00		1.0000e+00
			-15.25		1.5155e+00		1.0000e+00
			-15.2		1.5289e+00		1.0000e+00
			-15.15		1.5422e+00		1.0000e+00
			-15.1		1.5556e+00		1.0000e+00
			-15.05		1.5690e+00		1.0000e+00
			-15.0		1.5824e+00		1.0000e+00
			-14.95		1.5958e+00		1.0000e+00
			-14.9		1.6247e+00		1.0000e+00
			-14.85		1.6536e+00		1.0000e+00
			-14.8		1.6826e+00		1.0000e+00
			-14.75		1.7115e+00		1.0000e+00
			-14.7		1.7404e+00		1.0000e+00
			-14.65		1.7693e+00		1.0000e+00
			-14.6		1.7982e+00		1.0000e+00
			-14.55		1.8272e+00		1.0000e+00
			-14.5		1.8561e+00		1.0000e+00
			-14.45		1.8850e+00		1.0000e+00
			-14.4		1.9140e+00		1.0000e+00
			-14.35		1.9429e+00		1.0000e+00
			-14.3		1.9719e+00		1.0000e+00
			-14.25		2.0009e+00		1.0000e+00
			-14.2		2.0298e+00		1.0000e+00
			-14.15		2.0588e+00		1.0000e+00
			-14.1		2.0826e+00		1.0000e+00
			-14.05		2.1064e+00		1.0000e+00
			-14.0		2.1302e+00		1.0000e+00
			-13.95		2.1540e+00		1.0000e+00
			-13.9		2.1778e+00		1.0000e+00
			-13.85		2.2016e+00		1.0000e+00
			-13.8		2.2254e+00		1.0000e+00
			-13.75		2.2492e+00		1.0000e+00
			-13.7		2.2731e+00		1.0000e+00
			-13.65		2.2969e+00		1.0000e+00
			-13.6		2.3207e+00		1.0000e+00
			-13.55		2.3445e+00		1.0000e+00
			-13.5		2.3684e+00		1.0000e+00
			-13.45		2.3922e+00		1.0000e+00
			-13.4		2.4161e+00		1.0000e+00
			-13.35		2.4399e+00		1.0000e+00
			-13.3		2.4881e+00		1.0000e+00
			-13.25		2.5364e+00		1.0000e+00
			-13.2		2.5846e+00		1.0000e+00
			-13.15		2.6328e+00		1.0000e+00
			-13.1		2.6811e+00		1.0000e+00
			-13.05		2.7293e+00		1.0000e+00
			-13.0		2.7776e+00		1.0000e+00
			-12.95		2.8258e+00		1.0000e+00
			-12.9		2.8740e+00		1.0000e+00
			-12.85		2.9222e+00		1.0000e+00
			-12.8		2.9704e+00		1.0000e+00
			-12.75		3.0186e+00		1.0000e+00
			-12.7		3.0667e+00		1.0000e+00
			-12.65		3.1149e+00		1.0000e+00
			-12.6		3.1630e+00		1.0000e+00
			-12.55		3.2111e+00		1.0000e+00
			-12.5		3.3709e+00		1.0000e+00
			-12.45		3.5307e+00		1.0000e+00
			-12.4		3.6905e+00		1.0000e+00
			-12.35		3.8503e+00		1.0000e+00
			-12.3		4.4105e+00		1.0000e+00
			-12.25		4.9707e+00		1.0000e+00
			-12.2		5.5309e+00		1.0000e+00
			-12.15		6.0911e+00		1.0000e+00
			-12.1		7.0677e+00		1.0000e+00
			-12.05		8.0443e+00		1.0000e+00
			-12.0		9.0208e+00		1.0000e+00
			-11.95		9.9974e+00		1.0000e+00
			-11.9		1.0507e+01		1.0000e+00
			-11.85		1.1017e+01		1.0000e+00
			-11.8		1.1527e+01		1.0000e+00
			-11.75		1.2037e+01		1.0000e+00
			-11.7		1.2222e+01		1.0000e+00
			-11.65		1.2407e+01		1.0000e+00
			-11.6		1.2592e+01		1.0000e+00
			-11.55		1.2776e+01		1.0000e+00
			-11.5		1.2859e+01		1.0000e+00
			-11.45		1.2941e+01		1.0000e+00
			-11.4		1.3023e+01		1.0000e+00
			-11.35		1.3106e+01		1.0000e+00
			-11.3		1.3160e+01		1.0000e+00
			-11.25		1.3215e+01		1.0000e+00
			-11.2		1.3270e+01		1.0000e+00
			-11.15		1.3325e+01		1.0000e+00
			-11.1		1.3364e+01		1.0000e+00
			-11.05		1.3404e+01		1.0000e+00
			-11.0		1.3443e+01		1.0000e+00
			-10.95		1.3483e+01		1.0000e+00
			-10.9		1.3516e+01		1.0000e+00
			-10.85		1.3549e+01		1.0000e+00
			-10.8		1.3582e+01		1.0000e+00
			-10.75		1.3616e+01		1.0000e+00
			-10.7		1.3645e+01		1.0000e+00
			-10.65		1.3674e+01		1.0000e+00
			-10.6		1.3704e+01		1.0000e+00
			-10.55		1.3733e+01		1.0000e+00
			-10.5		1.3762e+01		1.0000e+00
			-10.45		1.3790e+01		1.0000e+00
			-10.4		1.3819e+01		1.0000e+00
			-10.35		1.3847e+01		1.0000e+00
			-10.3		1.3874e+01		1.0000e+00
			-10.25		1.3900e+01		1.0000e+00
			-10.2		1.3927e+01		1.0000e+00
			-10.15		1.3953e+01		1.0000e+00
			-10.1		1.3979e+01		1.0000e+00
			-10.05		1.4005e+01		1.0000e+00
			-10.0		1.4031e+01		1.0000e+00
			-9.95		1.4057e+01		1.0000e+00
			-9.9		1.4084e+01		1.0000e+00
			-9.85		1.4112e+01		1.0000e+00
			-9.8		1.4140e+01		1.0000e+00
			-9.75		1.4167e+01		1.0000e+00
			-9.7		1.4194e+01		1.0000e+00
			-9.65		1.4220e+01		1.0000e+00
			-9.6		1.4247e+01		1.0000e+00
			-9.55		1.4273e+01		1.0000e+00
			-9.5		1.4300e+01		1.0000e+00
			-9.45		1.4326e+01		1.0000e+00
			-9.4		1.4353e+01		1.0000e+00
			-9.35		1.4380e+01		1.0000e+00
			-9.3		1.4404e+01		1.0000e+00
			-9.25		1.4428e+01		1.0000e+00
			-9.2		1.4453e+01		1.0000e+00
			-9.15		1.4477e+01		1.0000e+00
			-9.1		1.4498e+01		1.0000e+00
			-9.05		1.4518e+01		1.0000e+00
			-9.0		1.4539e+01		1.0000e+00
			-8.95		1.4559e+01		1.0000e+00
			-8.9		1.4582e+01		1.0000e+00
			-8.85		1.4605e+01		1.0000e+00
			-8.8		1.4628e+01		1.0000e+00
			-8.75		1.4651e+01		1.0000e+00
			-8.7		1.4670e+01		1.0000e+00
			-8.65		1.4689e+01		1.0000e+00
			-8.6		1.4708e+01		1.0000e+00
			-8.55		1.4728e+01		1.0000e+00
			-8.5		1.4746e+01		1.0000e+00
			-8.45		1.4765e+01		1.0000e+00
			-8.4		1.4784e+01		1.0000e+00
			-8.35		1.4803e+01		1.0000e+00
			-8.3		1.4819e+01		1.0000e+00
			-8.25		1.4835e+01		1.0000e+00
			-8.2		1.4851e+01		1.0000e+00
			-8.15		1.4868e+01		1.0000e+00
			-8.1		1.4881e+01		1.0000e+00
			-8.05		1.4894e+01		1.0000e+00
			-8.0		1.4908e+01		1.0000e+00
			-7.95		1.4921e+01		1.0000e+00
			-7.9		1.4935e+01		1.0000e+00
			-7.85		1.4949e+01		1.0000e+00
			-7.8		1.4963e+01		1.0000e+00
			-7.75		1.4977e+01		1.0000e+00
			-7.7		1.4991e+01		1.0000e+00
			-7.65		1.5004e+01		1.0000e+00
			-7.6		1.5018e+01		1.0000e+00
			-7.55		1.5031e+01		1.0000e+00
			-7.5		1.5046e+01		1.0000e+00
			-7.45		1.5060e+01		1.0000e+00
			-7.4		1.5075e+01		1.0000e+00
			-7.35		1.5089e+01		1.0000e+00
			-7.3		1.5104e+01		1.0000e+00
			-7.25		1.5118e+01		1.0000e+00
			-7.2		1.5133e+01		1.0000e+00
			-7.15		1.5147e+01		1.0000e+00
			-7.1		1.5158e+01		1.0000e+00
			-7.05		1.5170e+01		1.0000e+00
			-7.0		1.5181e+01		1.0000e+00
			-6.95		1.5192e+01		1.0000e+00
			-6.9		1.5205e+01		1.0000e+00
			-6.85		1.5217e+01		1.0000e+00
			-6.8		1.5230e+01		1.0000e+00
			-6.75		1.5243e+01		1.0000e+00
			-6.7		1.5253e+01		1.0000e+00
			-6.65		1.5264e+01		1.0000e+00
			-6.6		1.5274e+01		1.0000e+00
			-6.55		1.5284e+01		1.0000e+00
			-6.5		1.5295e+01		1.0000e+00
			-6.45		1.5307e+01		1.0000e+00
			-6.4		1.5318e+01		1.0000e+00
			-6.35		1.5329e+01		1.0000e+00
			-6.3		1.5338e+01		1.0000e+00
			-6.25		1.5347e+01		1.0000e+00
			-6.2		1.5356e+01		1.0000e+00
			-6.15		1.5365e+01		1.0000e+00
			-6.1		1.5376e+01		1.0000e+00
			-6.05		1.5386e+01		1.0000e+00
			-6.0		1.5396e+01		1.0000e+00
			-5.95		1.5406e+01		1.0000e+00
			-5.9		1.5415e+01		1.0000e+00
			-5.85		1.5424e+01		1.0000e+00
			-5.8		1.5432e+01		1.0000e+00
			-5.75		1.5441e+01		1.0000e+00
			-5.7		1.5450e+01		1.0000e+00
			-5.65		1.5458e+01		1.0000e+00
			-5.6		1.5466e+01		1.0000e+00
			-5.55		1.5475e+01		1.0000e+00
			-5.5		1.5483e+01		1.0000e+00
			-5.45		1.5491e+01		1.0000e+00
			-5.4		1.5499e+01		1.0000e+00
			-5.35		1.5507e+01		1.0000e+00
			-5.3		1.5514e+01		1.0000e+00
			-5.25		1.5521e+01		1.0000e+00
			-5.2		1.5528e+01		1.0000e+00
			-5.15		1.5535e+01		1.0000e+00
			-5.1		1.5541e+01		1.0000e+00
			-5.05		1.5546e+01		1.0000e+00
			-5.0		1.5552e+01		1.0000e+00
			-4.95		1.5557e+01		1.0000e+00
			-4.9		1.5564e+01		1.0000e+00
			-4.85		1.5572e+01		1.0000e+00
			-4.8		1.5579e+01		1.0000e+00
			-4.75		1.5586e+01		1.0000e+00
			-4.7		1.5591e+01		1.0000e+00
			-4.65		1.5597e+01		1.0000e+00
			-4.6		1.5602e+01		1.0000e+00
			-4.55		1.5608e+01		1.0000e+00
			-4.5		1.5614e+01		1.0000e+00
			-4.45		1.5621e+01		1.0000e+00
			-4.4		1.5627e+01		1.0000e+00
			-4.35		1.5634e+01		1.0000e+00
			-4.3		1.5641e+01		1.0000e+00
			-4.25		1.5647e+01		1.0000e+00
			-4.2		1.5654e+01		1.0000e+00
			-4.15		1.5660e+01		1.0000e+00
			-4.1		1.5668e+01		1.0000e+00
			-4.05		1.5675e+01		1.0000e+00
			-4.0		1.5682e+01		1.0000e+00
			-3.95		1.5690e+01		1.0000e+00
			-3.9		1.5696e+01		1.0000e+00
			-3.85		1.5702e+01		1.0000e+00
			-3.8		1.5708e+01		1.0000e+00
			-3.75		1.5714e+01		1.0000e+00
			-3.7		1.5718e+01		1.0000e+00
			-3.65		1.5722e+01		1.0000e+00
			-3.6		1.5726e+01		1.0000e+00
			-3.55		1.5730e+01		1.0000e+00
			-3.5		1.5734e+01		1.0000e+00
			-3.45		1.5737e+01		1.0000e+00
			-3.4		1.5741e+01		1.0000e+00
			-3.35		1.5745e+01		1.0000e+00
			-3.3		1.5747e+01		1.0000e+00
			-3.25		1.5750e+01		1.0000e+00
			-3.2		1.5753e+01		1.0000e+00
			-3.15		1.5756e+01		1.0000e+00
			-3.1		1.5758e+01		1.0000e+00
			-3.05		1.5761e+01		1.0000e+00
			-3.0		1.5763e+01		1.0000e+00
			-2.95		1.5765e+01		1.0000e+00
			-2.9		1.5766e+01		1.0000e+00
			-2.85		1.5767e+01		1.0000e+00
			-2.8		1.5768e+01		1.0000e+00
			-2.75		1.5769e+01		1.0000e+00
			-2.7		1.5771e+01		1.0000e+00
			-2.65		1.5773e+01		1.0000e+00
			-2.6		1.5776e+01		1.0000e+00
			-2.55		1.5778e+01		1.0000e+00
			-2.5		1.5780e+01		1.0000e+00
			-2.45		1.5781e+01		1.0000e+00
			-2.4		1.5783e+01		1.0000e+00
			-2.35		1.5785e+01		1.0000e+00
			-2.3		1.5786e+01		1.0000e+00
			-2.25		1.5787e+01		1.0000e+00
			-2.2		1.5788e+01		1.0000e+00
			-2.15		1.5789e+01		1.0000e+00
			-2.1		1.5787e+01		1.0000e+00
			-2.05		1.5785e+01		1.0000e+00
			-2.0		1.5784e+01		1.0000e+00
			-1.95		1.5782e+01		1.0000e+00
			-1.9		1.5783e+01		1.0000e+00
			-1.85		1.5783e+01		1.0000e+00
			-1.8		1.5783e+01		1.0000e+00
			-1.75		1.5784e+01		1.0000e+00
			-1.7		1.5782e+01		1.0000e+00
			-1.65		1.5781e+01		1.0000e+00
			-1.6		1.5779e+01		1.0000e+00
			-1.55		1.5778e+01		1.0000e+00
			-1.5		1.5778e+01		1.0000e+00
			-1.45		1.5778e+01		1.0000e+00
			-1.4		1.5779e+01		1.0000e+00
			-1.35		1.5779e+01		1.0000e+00
			-1.3		1.5778e+01		1.0000e+00
			-1.25		1.5778e+01		1.0000e+00
			-1.2		1.5777e+01		1.0000e+00
			-1.15		1.5777e+01		1.0000e+00
			-1.1		1.5776e+01		1.0000e+00
			-1.05		1.5775e+01		1.0000e+00
			-1.0		1.5774e+01		1.0000e+00
			-0.95		1.5773e+01		1.0000e+00
			-0.9		1.5771e+01		1.0000e+00
			-0.85		1.5769e+01		1.0000e+00
			-0.8		1.5767e+01		1.0000e+00
			-0.75		1.5765e+01		1.0000e+00
			-0.7		1.5764e+01		1.0000e+00
			-0.65		1.5764e+01		1.0000e+00
			-0.6		1.5764e+01		1.0000e+00
			-0.55		1.5763e+01		1.0000e+00
			-0.5		1.5761e+01		1.0000e+00
			-0.45		1.5759e+01		1.0000e+00
			-0.4		1.5757e+01		1.0000e+00
			-0.35		1.5755e+01		1.0000e+00
			-0.3		1.5754e+01		1.0000e+00
			-0.25		1.5753e+01		1.0000e+00
			-0.2		1.5753e+01		1.0000e+00
			-0.15		1.5752e+01		1.0000e+00
			-0.1		1.5752e+01		1.0000e+00
			-0.05		1.5752e+01		1.0000e+00
			0.0		1.5752e+01		1.0000e+00
			0.05		1.5753e+01		1.0000e+00
			0.1		1.5754e+01		1.0000e+00
			0.15		1.5755e+01		1.0000e+00
			0.2		1.5756e+01		1.0000e+00
			0.25		1.5758e+01		1.0000e+00
			0.3		1.5760e+01		1.0000e+00
			0.35		1.5763e+01		1.0000e+00
			0.4		1.5766e+01		1.0000e+00
			0.45		1.5769e+01		1.0000e+00
			0.5		1.5770e+01		1.0000e+00
			0.55		1.5771e+01		1.0000e+00
			0.6		1.5772e+01		1.0000e+00
			0.65		1.5774e+01		1.0000e+00
			0.7		1.5777e+01		1.0000e+00
			0.75		1.5780e+01		1.0000e+00
			0.8		1.5783e+01		1.0000e+00
			0.85		1.5786e+01		1.0000e+00
			0.9		1.5787e+01		1.0000e+00
			0.95		1.5789e+01		1.0000e+00
			1.0		1.5791e+01		1.0000e+00
			1.05		1.5793e+01		1.0000e+00
			1.1		1.5794e+01		1.0000e+00
			1.15		1.5795e+01		1.0000e+00
			1.2		1.5796e+01		1.0000e+00
			1.25		1.5797e+01		1.0000e+00
			1.3		1.5797e+01		1.0000e+00
			1.35		1.5798e+01		1.0000e+00
			1.4		1.5798e+01		1.0000e+00
			1.45		1.5798e+01		1.0000e+00
			1.5		1.5800e+01		1.0000e+00
			1.55		1.5802e+01		1.0000e+00
			1.6		1.5803e+01		1.0000e+00
			1.65		1.5805e+01		1.0000e+00
			1.7		1.5805e+01		1.0000e+00
			1.75		1.5805e+01		1.0000e+00
			1.8		1.5805e+01		1.0000e+00
			1.85		1.5805e+01		1.0000e+00
			1.9		1.5809e+01		1.0000e+00
			1.95		1.5812e+01		1.0000e+00
			2.0		1.5815e+01		1.0000e+00
			2.05		1.5818e+01		1.0000e+00
			2.1		1.5820e+01		1.0000e+00
			2.15		1.5822e+01		1.0000e+00
			2.2		1.5824e+01		1.0000e+00
			2.25		1.5825e+01		1.0000e+00
			2.3		1.5826e+01		1.0000e+00
			2.35		1.5827e+01		1.0000e+00
			2.4		1.5827e+01		1.0000e+00
			2.45		1.5828e+01		1.0000e+00
			2.5		1.5829e+01		1.0000e+00
			2.55		1.5829e+01		1.0000e+00
			2.6		1.5829e+01		1.0000e+00
			2.65		1.5830e+01		1.0000e+00
			2.7		1.5829e+01		1.0000e+00
			2.75		1.5829e+01		1.0000e+00
			2.8		1.5828e+01		1.0000e+00
			2.85		1.5828e+01		1.0000e+00
			2.9		1.5826e+01		1.0000e+00
			2.95		1.5824e+01		1.0000e+00
			3.0		1.5822e+01		1.0000e+00
			3.05		1.5821e+01		1.0000e+00
			3.1		1.5819e+01		1.0000e+00
			3.15		1.5818e+01		1.0000e+00
			3.2		1.5816e+01		1.0000e+00
			3.25		1.5815e+01		1.0000e+00
			3.3		1.5815e+01		1.0000e+00
			3.35		1.5815e+01		1.0000e+00
			3.4		1.5814e+01		1.0000e+00
			3.45		1.5814e+01		1.0000e+00
			3.5		1.5811e+01		1.0000e+00
			3.55		1.5807e+01		1.0000e+00
			3.6		1.5804e+01		1.0000e+00
			3.65		1.5801e+01		1.0000e+00
			3.7		1.5801e+01		1.0000e+00
			3.75		1.5801e+01		1.0000e+00
			3.8		1.5800e+01		1.0000e+00
			3.85		1.5800e+01		1.0000e+00
			3.9		1.5803e+01		1.0000e+00
			3.95		1.5805e+01		1.0000e+00
			4.0		1.5808e+01		1.0000e+00
			4.05		1.5810e+01		1.0000e+00
			4.1		1.5839e+01		1.0000e+00
			4.15		1.5868e+01		1.0000e+00
			4.2		1.5897e+01		1.0000e+00
			4.25		1.5926e+01		1.0000e+00
			4.3		1.6061e+01		1.0000e+00
			4.35		1.6196e+01		1.0000e+00
			4.4		1.6331e+01		1.0000e+00
			4.45		1.6466e+01		1.0000e+00
			4.5		1.6944e+01		1.0000e+00
			4.55		1.7421e+01		1.0000e+00
			4.6		1.7899e+01		1.0000e+00
			4.65		1.8376e+01		1.0000e+00
			4.7		1.8348e+01		1.0000e+00
			4.75		1.8321e+01		1.0000e+00
			4.8		1.8293e+01		1.0000e+00
			4.85		1.8265e+01		1.0000e+00
			4.9		1.7778e+01		1.0000e+00
			4.95		1.7291e+01		1.0000e+00
			5.0		1.6804e+01		1.0000e+00
			5.05		1.6317e+01		1.0000e+00
			5.1		1.6185e+01		1.0000e+00
			5.15		1.6053e+01		1.0000e+00
			5.2		1.5921e+01		1.0000e+00
			5.25		1.5789e+01		1.0000e+00
			5.3		1.5751e+01		1.0000e+00
			5.35		1.5714e+01		1.0000e+00
			5.4		1.5676e+01		1.0000e+00
			5.45		1.5639e+01		1.0000e+00
			5.5		1.5617e+01		1.0000e+00
			5.55		1.5596e+01		1.0000e+00
			5.6		1.5575e+01		1.0000e+00
			5.65		1.5554e+01		1.0000e+00
			5.7		1.5541e+01		1.0000e+00
			5.75		1.5527e+01		1.0000e+00
			5.8		1.5514e+01		1.0000e+00
			5.85		1.5500e+01		1.0000e+00
			5.9		1.5486e+01		1.0000e+00
			5.95		1.5472e+01		1.0000e+00
			6.0		1.5458e+01		1.0000e+00
			6.05		1.5444e+01		1.0000e+00
			6.1		1.5432e+01		1.0000e+00
			6.15		1.5420e+01		1.0000e+00
			6.2		1.5408e+01		1.0000e+00
			6.25		1.5396e+01		1.0000e+00
			6.3		1.5384e+01		1.0000e+00
			6.35		1.5371e+01		1.0000e+00
			6.4		1.5358e+01		1.0000e+00
			6.45		1.5346e+01		1.0000e+00
			6.5		1.5335e+01		1.0000e+00
			6.55		1.5324e+01		1.0000e+00
			6.6		1.5313e+01		1.0000e+00
			6.65		1.5302e+01		1.0000e+00
			6.7		1.5287e+01		1.0000e+00
			6.75		1.5273e+01		1.0000e+00
			6.8		1.5258e+01		1.0000e+00
			6.85		1.5243e+01		1.0000e+00
			6.9		1.5231e+01		1.0000e+00
			6.95		1.5218e+01		1.0000e+00
			7.0		1.5206e+01		1.0000e+00
			7.05		1.5194e+01		1.0000e+00
			7.1		1.5178e+01		1.0000e+00
			7.15		1.5163e+01		1.0000e+00
			7.2		1.5148e+01		1.0000e+00
			7.25		1.5133e+01		1.0000e+00
			7.3		1.5118e+01		1.0000e+00
			7.35		1.5102e+01		1.0000e+00
			7.4		1.5087e+01		1.0000e+00
			7.45		1.5072e+01		1.0000e+00
			7.5		1.5058e+01		1.0000e+00
			7.55		1.5044e+01		1.0000e+00
			7.6		1.5030e+01		1.0000e+00
			7.65		1.5016e+01		1.0000e+00
			7.7		1.5002e+01		1.0000e+00
			7.75		1.4988e+01		1.0000e+00
			7.8		1.4974e+01		1.0000e+00
			7.85		1.4960e+01		1.0000e+00
			7.9		1.4946e+01		1.0000e+00
			7.95		1.4932e+01		1.0000e+00
			8.0		1.4918e+01		1.0000e+00
			8.05		1.4905e+01		1.0000e+00
			8.1		1.4888e+01		1.0000e+00
			8.15		1.4871e+01		1.0000e+00
			8.2		1.4854e+01		1.0000e+00
			8.25		1.4837e+01		1.0000e+00
			8.3		1.4818e+01		1.0000e+00
			8.35		1.4798e+01		1.0000e+00
			8.4		1.4779e+01		1.0000e+00
			8.45		1.4759e+01		1.0000e+00
			8.5		1.4739e+01		1.0000e+00
			8.55		1.4719e+01		1.0000e+00
			8.6		1.4699e+01		1.0000e+00
			8.65		1.4680e+01		1.0000e+00
			8.7		1.4656e+01		1.0000e+00
			8.75		1.4633e+01		1.0000e+00
			8.8		1.4610e+01		1.0000e+00
			8.85		1.4586e+01		1.0000e+00
			8.9		1.4566e+01		1.0000e+00
			8.95		1.4546e+01		1.0000e+00
			9.0		1.4525e+01		1.0000e+00
			9.05		1.4505e+01		1.0000e+00
			9.1		1.4481e+01		1.0000e+00
			9.15		1.4457e+01		1.0000e+00
			9.2		1.4433e+01		1.0000e+00
			9.25		1.4409e+01		1.0000e+00
			9.3		1.4383e+01		1.0000e+00
			9.35		1.4357e+01		1.0000e+00
			9.4		1.4331e+01		1.0000e+00
			9.45		1.4305e+01		1.0000e+00
			9.5		1.4278e+01		1.0000e+00
			9.55		1.4250e+01		1.0000e+00
			9.6		1.4223e+01		1.0000e+00
			9.65		1.4196e+01		1.0000e+00
			9.7		1.4168e+01		1.0000e+00
			9.75		1.4141e+01		1.0000e+00
			9.8		1.4113e+01		1.0000e+00
			9.85		1.4086e+01		1.0000e+00
			9.9		1.4060e+01		1.0000e+00
			9.95		1.4034e+01		1.0000e+00
			10.0		1.4008e+01		1.0000e+00
			10.05		1.3982e+01		1.0000e+00
			10.1		1.3955e+01		1.0000e+00
			10.15		1.3929e+01		1.0000e+00
			10.2		1.3903e+01		1.0000e+00
			10.25		1.3876e+01		1.0000e+00
			10.3		1.3847e+01		1.0000e+00
			10.35		1.3819e+01		1.0000e+00
			10.4		1.3790e+01		1.0000e+00
			10.45		1.3761e+01		1.0000e+00
			10.5		1.3730e+01		1.0000e+00
			10.55		1.3700e+01		1.0000e+00
			10.6		1.3669e+01		1.0000e+00
			10.65		1.3638e+01		1.0000e+00
			10.7		1.3605e+01		1.0000e+00
			10.75		1.3571e+01		1.0000e+00
			10.8		1.3537e+01		1.0000e+00
			10.85		1.3504e+01		1.0000e+00
			10.9		1.3464e+01		1.0000e+00
			10.95		1.3424e+01		1.0000e+00
			11.0		1.3384e+01		1.0000e+00
			11.05		1.3343e+01		1.0000e+00
			11.1		1.3289e+01		1.0000e+00
			11.15		1.3234e+01		1.0000e+00
			11.2		1.3179e+01		1.0000e+00
			11.25		1.3125e+01		1.0000e+00
			11.3		1.3042e+01		1.0000e+00
			11.35		1.2959e+01		1.0000e+00
			11.4		1.2877e+01		1.0000e+00
			11.45		1.2794e+01		1.0000e+00
			11.5		1.2609e+01		1.0000e+00
			11.55		1.2424e+01		1.0000e+00
			11.6		1.2238e+01		1.0000e+00
			11.65		1.2053e+01		1.0000e+00
			11.7		1.1543e+01		1.0000e+00
			11.75		1.1032e+01		1.0000e+00
			11.8		1.0522e+01		1.0000e+00
			11.85		1.0011e+01		1.0000e+00
			11.9		9.0345e+00		1.0000e+00
			11.95		8.0577e+00		1.0000e+00
			12.0		7.0810e+00		1.0000e+00
			12.05		6.1042e+00		1.0000e+00
			12.1		5.5455e+00		1.0000e+00
			12.15		4.9867e+00		1.0000e+00
			12.2		4.4279e+00		1.0000e+00
			12.25		3.8691e+00		1.0000e+00
			12.3		3.7881e+00		1.0000e+00
			12.35		3.7070e+00		1.0000e+00
			12.4		3.6260e+00		1.0000e+00
			12.45		3.5449e+00		1.0000e+00
			12.5		3.4639e+00		1.0000e+00
			12.55		3.3829e+00		1.0000e+00
			12.6		3.3019e+00		1.0000e+00
			12.65		3.2209e+00		1.0000e+00
			12.7		3.1399e+00		1.0000e+00
			12.75		3.0589e+00		1.0000e+00
			12.8		2.9780e+00		1.0000e+00
			12.85		2.8970e+00		1.0000e+00
			12.9		2.8161e+00		1.0000e+00
			12.95		2.7352e+00		1.0000e+00
			13.0		2.6543e+00		1.0000e+00
			13.05		2.5734e+00		1.0000e+00
			13.1		2.5476e+00		1.0000e+00
			13.15		2.5218e+00		1.0000e+00
			13.2		2.4960e+00		1.0000e+00
			13.25		2.4703e+00		1.0000e+00
			13.3		2.4445e+00		1.0000e+00
			13.35		2.4187e+00		1.0000e+00
			13.4		2.3929e+00		1.0000e+00
			13.45		2.3672e+00		1.0000e+00
			13.5		2.3414e+00		1.0000e+00
			13.55		2.3157e+00		1.0000e+00
			13.6		2.2899e+00		1.0000e+00
			13.65		2.2641e+00		1.0000e+00
			13.7		2.2384e+00		1.0000e+00
			13.75		2.2127e+00		1.0000e+00
			13.8		2.1869e+00		1.0000e+00
			13.85		2.1612e+00		1.0000e+00
			13.9		2.1367e+00		1.0000e+00
			13.95		2.1123e+00		1.0000e+00
