BEGIN_SCAN_DATA
	FORMAT=CC-Export V1.9                  
	FILE_CREATION_DATE=
	LAST_MODIFIED=11-Jan-2023 10:50:22
	BEGIN_SCAN  1
		TASK_NAME=RayStation Phantom Profiles & PDDs
		PROGRAM=RayStation
		COMMENT=RayStation Script Export
		MEAS_DATE=11-Jan-2023 10:50:22
		LINAC=RayStation
		MODALITY=X
		ISOCENTER=1000.00
		INPLANE_AXIS=Y
		CROSSPLANE_AXIS=X
		DEPTH_AXIS=Z
		INPLANE_AXIS_DIR=GUN_TARGET
		CROSSPLANE_AXIS_DIR=LEFT_RIGHT
		DEPTH_AXIS_DIR=UP_DOWN
		ENERGY=6.3
		NOMINAL_DMAX=20.00
		SSD=1000.0
		SCD=1000.00
		WEDGE_ANGLE=0.00
		FIELD_INPLANE=200.0
		FIELD_CROSSPLANE=200.0
		FIELD_TYPE=IRREGULAR
		GANTRY=0.00
		GANTRY_UPRIGHT_POSITION=0
		GANTRY_ROTATION=CW
		COLL_ANGLE=0.00
		REF_FIELD_DEPTH=50.00
		REF_FIELD_DEFINED=ISOCENTER
		FIELD_INPLANE=200.0
		FIELD_CROSSPLANE=200.0
		SCAN_CURVETYPE=CROSSPLANE_PROFILE
		SCAN_DEPTH=20.0
		SCAN_OFFAXIS_INPLANE=0.00
		SCAN_OFFAXIS_CROSSPLANE=0.00
		SCAN_ANGLE=0.00
		SCAN_DIAGONAL=NOT_DIAGONAL
		SCAN_DIRECTION=NEGATIVE
		MEAS_MEDIUM=WATER
		MEAS_UNIT=cGy
		INCLINATION_ANGLE=0.00
		PRESSURE=1013.20
		TEMPERATURE=20.00
		NORM_TEMPERATURE=20.00
		CORRECTION_FACTOR=1.0000;
		BEGIN_DATA
			-30.05		4.9824e-04		1.0000e+00
			-30.0		7.4735e-04		1.0000e+00
			-29.95		9.9644e-04		1.0000e+00
			-29.9		1.0211e-03		1.0000e+00
			-29.85		1.0457e-03		1.0000e+00
			-29.8		1.0704e-03		1.0000e+00
			-29.75		1.0951e-03		1.0000e+00
			-29.7		1.1143e-03		1.0000e+00
			-29.65		1.1335e-03		1.0000e+00
			-29.6		1.1527e-03		1.0000e+00
			-29.55		1.1719e-03		1.0000e+00
			-29.5		1.2040e-03		1.0000e+00
			-29.45		1.2361e-03		1.0000e+00
			-29.4		1.2682e-03		1.0000e+00
			-29.35		1.3003e-03		1.0000e+00
			-29.3		1.3229e-03		1.0000e+00
			-29.25		1.3455e-03		1.0000e+00
			-29.2		1.3682e-03		1.0000e+00
			-29.15		1.3908e-03		1.0000e+00
			-29.1		1.4327e-03		1.0000e+00
			-29.05		1.4747e-03		1.0000e+00
			-29.0		1.5166e-03		1.0000e+00
			-28.95		1.5586e-03		1.0000e+00
			-28.9		1.5855e-03		1.0000e+00
			-28.85		1.6125e-03		1.0000e+00
			-28.8		1.6394e-03		1.0000e+00
			-28.75		1.6664e-03		1.0000e+00
			-28.7		1.7198e-03		1.0000e+00
			-28.65		1.7733e-03		1.0000e+00
			-28.6		1.8267e-03		1.0000e+00
			-28.55		1.8801e-03		1.0000e+00
			-28.5		1.9123e-03		1.0000e+00
			-28.45		1.9446e-03		1.0000e+00
			-28.4		1.9768e-03		1.0000e+00
			-28.35		2.0090e-03		1.0000e+00
			-28.3		2.0777e-03		1.0000e+00
			-28.25		2.1465e-03		1.0000e+00
			-28.2		2.2153e-03		1.0000e+00
			-28.15		2.2840e-03		1.0000e+00
			-28.1		2.3226e-03		1.0000e+00
			-28.05		2.3612e-03		1.0000e+00
			-28.0		2.3998e-03		1.0000e+00
			-27.95		2.4384e-03		1.0000e+00
			-27.9		2.5265e-03		1.0000e+00
			-27.85		2.6147e-03		1.0000e+00
			-27.8		2.7028e-03		1.0000e+00
			-27.75		2.7909e-03		1.0000e+00
			-27.7		2.8378e-03		1.0000e+00
			-27.65		2.8846e-03		1.0000e+00
			-27.6		2.9315e-03		1.0000e+00
			-27.55		2.9783e-03		1.0000e+00
			-27.5		3.0903e-03		1.0000e+00
			-27.45		3.2022e-03		1.0000e+00
			-27.4		3.3142e-03		1.0000e+00
			-27.35		3.4262e-03		1.0000e+00
			-27.3		3.4804e-03		1.0000e+00
			-27.25		3.5345e-03		1.0000e+00
			-27.2		3.5887e-03		1.0000e+00
			-27.15		3.6429e-03		1.0000e+00
			-27.1		3.7851e-03		1.0000e+00
			-27.05		3.9274e-03		1.0000e+00
			-27.0		4.0696e-03		1.0000e+00
			-26.95		4.2119e-03		1.0000e+00
			-26.9		4.2760e-03		1.0000e+00
			-26.85		4.3401e-03		1.0000e+00
			-26.8		4.4043e-03		1.0000e+00
			-26.75		4.4684e-03		1.0000e+00
			-26.7		4.6498e-03		1.0000e+00
			-26.65		4.8311e-03		1.0000e+00
			-26.6		5.0125e-03		1.0000e+00
			-26.55		5.1938e-03		1.0000e+00
			-26.5		5.2694e-03		1.0000e+00
			-26.45		5.3450e-03		1.0000e+00
			-26.4		5.4206e-03		1.0000e+00
			-26.35		5.4963e-03		1.0000e+00
			-26.3		5.7301e-03		1.0000e+00
			-26.25		5.9640e-03		1.0000e+00
			-26.2		6.1979e-03		1.0000e+00
			-26.15		6.4317e-03		1.0000e+00
			-26.1		6.5205e-03		1.0000e+00
			-26.05		6.6092e-03		1.0000e+00
			-26.0		6.6980e-03		1.0000e+00
			-25.95		6.7867e-03		1.0000e+00
			-25.9		7.0782e-03		1.0000e+00
			-25.85		7.3696e-03		1.0000e+00
			-25.8		7.6611e-03		1.0000e+00
			-25.75		7.9525e-03		1.0000e+00
			-25.7		8.0550e-03		1.0000e+00
			-25.65		8.1575e-03		1.0000e+00
			-25.6		8.2601e-03		1.0000e+00
			-25.55		8.3626e-03		1.0000e+00
			-25.5		8.7294e-03		1.0000e+00
			-25.45		9.0962e-03		1.0000e+00
			-25.4		9.4630e-03		1.0000e+00
			-25.35		9.8298e-03		1.0000e+00
			-25.3		9.9475e-03		1.0000e+00
			-25.25		1.0065e-02		1.0000e+00
			-25.2		1.0183e-02		1.0000e+00
			-25.15		1.0301e-02		1.0000e+00
			-25.1		1.0750e-02		1.0000e+00
			-25.05		1.1200e-02		1.0000e+00
			-25.0		1.1649e-02		1.0000e+00
			-24.95		1.2099e-02		1.0000e+00
			-24.9		1.2233e-02		1.0000e+00
			-24.85		1.2367e-02		1.0000e+00
			-24.8		1.2501e-02		1.0000e+00
			-24.75		1.2635e-02		1.0000e+00
			-24.7		1.3184e-02		1.0000e+00
			-24.65		1.3733e-02		1.0000e+00
			-24.6		1.4282e-02		1.0000e+00
			-24.55		1.4831e-02		1.0000e+00
			-24.5		1.4979e-02		1.0000e+00
			-24.45		1.5127e-02		1.0000e+00
			-24.4		1.5275e-02		1.0000e+00
			-24.35		1.5423e-02		1.0000e+00
			-24.3		1.6091e-02		1.0000e+00
			-24.25		1.6760e-02		1.0000e+00
			-24.2		1.7428e-02		1.0000e+00
			-24.15		1.8096e-02		1.0000e+00
			-24.1		1.8269e-02		1.0000e+00
			-24.05		1.8442e-02		1.0000e+00
			-24.0		1.8615e-02		1.0000e+00
			-23.95		1.8788e-02		1.0000e+00
			-23.9		1.9599e-02		1.0000e+00
			-23.85		2.0409e-02		1.0000e+00
			-23.8		2.1219e-02		1.0000e+00
			-23.75		2.2030e-02		1.0000e+00
			-23.7		2.2224e-02		1.0000e+00
			-23.65		2.2418e-02		1.0000e+00
			-23.6		2.2612e-02		1.0000e+00
			-23.55		2.2806e-02		1.0000e+00
			-23.5		2.3779e-02		1.0000e+00
			-23.45		2.4751e-02		1.0000e+00
			-23.4		2.5724e-02		1.0000e+00
			-23.35		2.6697e-02		1.0000e+00
			-23.3		2.6911e-02		1.0000e+00
			-23.25		2.7126e-02		1.0000e+00
			-23.2		2.7341e-02		1.0000e+00
			-23.15		2.7556e-02		1.0000e+00
			-23.1		2.8702e-02		1.0000e+00
			-23.05		2.9848e-02		1.0000e+00
			-23.0		3.0993e-02		1.0000e+00
			-22.95		3.2139e-02		1.0000e+00
			-22.9		3.2380e-02		1.0000e+00
			-22.85		3.2621e-02		1.0000e+00
			-22.8		3.2862e-02		1.0000e+00
			-22.75		3.3103e-02		1.0000e+00
			-22.7		3.4466e-02		1.0000e+00
			-22.65		3.5829e-02		1.0000e+00
			-22.6		3.7193e-02		1.0000e+00
			-22.55		3.8556e-02		1.0000e+00
			-22.5		3.8822e-02		1.0000e+00
			-22.45		3.9089e-02		1.0000e+00
			-22.4		3.9356e-02		1.0000e+00
			-22.35		3.9623e-02		1.0000e+00
			-22.3		4.1206e-02		1.0000e+00
			-22.25		4.2790e-02		1.0000e+00
			-22.2		4.4373e-02		1.0000e+00
			-22.15		4.5956e-02		1.0000e+00
			-22.1		4.6273e-02		1.0000e+00
			-22.05		4.6589e-02		1.0000e+00
			-22.0		4.6905e-02		1.0000e+00
			-21.95		4.7221e-02		1.0000e+00
			-21.9		4.9038e-02		1.0000e+00
			-21.85		5.0855e-02		1.0000e+00
			-21.8		5.2672e-02		1.0000e+00
			-21.75		5.4489e-02		1.0000e+00
			-21.7		5.4836e-02		1.0000e+00
			-21.65		5.5182e-02		1.0000e+00
			-21.6		5.5528e-02		1.0000e+00
			-21.55		5.5875e-02		1.0000e+00
			-21.5		5.7958e-02		1.0000e+00
			-21.45		6.0041e-02		1.0000e+00
			-21.4		6.2124e-02		1.0000e+00
			-21.35		6.4207e-02		1.0000e+00
			-21.3		6.4609e-02		1.0000e+00
			-21.25		6.5011e-02		1.0000e+00
			-21.2		6.5413e-02		1.0000e+00
			-21.15		6.5816e-02		1.0000e+00
			-21.1		6.8188e-02		1.0000e+00
			-21.05		7.0561e-02		1.0000e+00
			-21.0		7.2934e-02		1.0000e+00
			-20.95		7.5306e-02		1.0000e+00
			-20.9		7.5736e-02		1.0000e+00
			-20.85		7.6165e-02		1.0000e+00
			-20.8		7.6594e-02		1.0000e+00
			-20.75		7.7024e-02		1.0000e+00
			-20.7		7.9711e-02		1.0000e+00
			-20.65		8.2398e-02		1.0000e+00
			-20.6		8.5085e-02		1.0000e+00
			-20.55		8.7771e-02		1.0000e+00
			-20.5		8.8244e-02		1.0000e+00
			-20.45		8.8716e-02		1.0000e+00
			-20.4		8.9188e-02		1.0000e+00
			-20.35		8.9661e-02		1.0000e+00
			-20.3		9.2625e-02		1.0000e+00
			-20.25		9.5589e-02		1.0000e+00
			-20.2		9.8553e-02		1.0000e+00
			-20.15		1.0152e-01		1.0000e+00
			-20.1		1.0206e-01		1.0000e+00
			-20.05		1.0259e-01		1.0000e+00
			-20.0		1.0313e-01		1.0000e+00
			-19.95		1.0367e-01		1.0000e+00
			-19.9		1.0698e-01		1.0000e+00
			-19.85		1.1029e-01		1.0000e+00
			-19.8		1.1360e-01		1.0000e+00
			-19.75		1.1691e-01		1.0000e+00
			-19.7		1.1752e-01		1.0000e+00
			-19.65		1.1812e-01		1.0000e+00
			-19.6		1.1873e-01		1.0000e+00
			-19.55		1.1934e-01		1.0000e+00
			-19.5		1.2292e-01		1.0000e+00
			-19.45		1.2651e-01		1.0000e+00
			-19.4		1.3010e-01		1.0000e+00
			-19.35		1.3368e-01		1.0000e+00
			-19.3		1.3439e-01		1.0000e+00
			-19.25		1.3510e-01		1.0000e+00
			-19.2		1.3581e-01		1.0000e+00
			-19.15		1.3652e-01		1.0000e+00
			-19.1		1.1243e-01		1.0000e+00
			-19.05		8.8331e-02		1.0000e+00
			-19.0		6.4237e-02		1.0000e+00
			-18.95		4.0148e-02		1.0000e+00
			-18.9		8.5600e-02		1.0000e+00
			-18.85		1.3105e-01		1.0000e+00
			-18.8		1.7650e-01		1.0000e+00
			-18.75		2.2196e-01		1.0000e+00
			-18.7		2.6745e-01		1.0000e+00
			-18.65		3.1294e-01		1.0000e+00
			-18.6		3.5843e-01		1.0000e+00
			-18.55		4.0392e-01		1.0000e+00
			-18.5		4.4945e-01		1.0000e+00
			-18.45		4.9497e-01		1.0000e+00
			-18.4		5.4050e-01		1.0000e+00
			-18.35		5.8603e-01		1.0000e+00
			-18.3		6.3159e-01		1.0000e+00
			-18.25		6.7716e-01		1.0000e+00
			-18.2		7.2272e-01		1.0000e+00
			-18.15		7.6828e-01		1.0000e+00
			-18.1		7.7425e-01		1.0000e+00
			-18.05		7.8022e-01		1.0000e+00
			-18.0		7.8618e-01		1.0000e+00
			-17.95		7.9215e-01		1.0000e+00
			-17.9		7.9812e-01		1.0000e+00
			-17.85		8.0409e-01		1.0000e+00
			-17.8		8.1006e-01		1.0000e+00
			-17.75		8.1603e-01		1.0000e+00
			-17.7		8.2200e-01		1.0000e+00
			-17.65		8.2798e-01		1.0000e+00
			-17.6		8.3395e-01		1.0000e+00
			-17.55		8.3992e-01		1.0000e+00
			-17.5		8.4590e-01		1.0000e+00
			-17.45		8.5188e-01		1.0000e+00
			-17.4		8.5786e-01		1.0000e+00
			-17.35		8.6384e-01		1.0000e+00
			-17.3		8.7104e-01		1.0000e+00
			-17.25		8.7825e-01		1.0000e+00
			-17.2		8.8546e-01		1.0000e+00
			-17.15		8.9266e-01		1.0000e+00
			-17.1		8.9988e-01		1.0000e+00
			-17.05		9.0709e-01		1.0000e+00
			-17.0		9.1430e-01		1.0000e+00
			-16.95		9.2152e-01		1.0000e+00
			-16.9		9.2873e-01		1.0000e+00
			-16.85		9.3595e-01		1.0000e+00
			-16.8		9.4316e-01		1.0000e+00
			-16.75		9.5038e-01		1.0000e+00
			-16.7		9.5760e-01		1.0000e+00
			-16.65		9.6482e-01		1.0000e+00
			-16.6		9.7204e-01		1.0000e+00
			-16.55		9.7927e-01		1.0000e+00
			-16.5		9.8737e-01		1.0000e+00
			-16.45		9.9547e-01		1.0000e+00
			-16.4		1.0036e+00		1.0000e+00
			-16.35		1.0117e+00		1.0000e+00
			-16.3		1.0198e+00		1.0000e+00
			-16.25		1.0279e+00		1.0000e+00
			-16.2		1.0360e+00		1.0000e+00
			-16.15		1.0441e+00		1.0000e+00
			-16.1		1.0522e+00		1.0000e+00
			-16.05		1.0603e+00		1.0000e+00
			-16.0		1.0684e+00		1.0000e+00
			-15.95		1.0765e+00		1.0000e+00
			-15.9		1.0847e+00		1.0000e+00
			-15.85		1.0928e+00		1.0000e+00
			-15.8		1.1009e+00		1.0000e+00
			-15.75		1.1090e+00		1.0000e+00
			-15.7		1.1195e+00		1.0000e+00
			-15.65		1.1301e+00		1.0000e+00
			-15.6		1.1406e+00		1.0000e+00
			-15.55		1.1511e+00		1.0000e+00
			-15.5		1.1617e+00		1.0000e+00
			-15.45		1.1722e+00		1.0000e+00
			-15.4		1.1827e+00		1.0000e+00
			-15.35		1.1933e+00		1.0000e+00
			-15.3		1.2038e+00		1.0000e+00
			-15.25		1.2143e+00		1.0000e+00
			-15.2		1.2249e+00		1.0000e+00
			-15.15		1.2354e+00		1.0000e+00
			-15.1		1.2460e+00		1.0000e+00
			-15.05		1.2565e+00		1.0000e+00
			-15.0		1.2670e+00		1.0000e+00
			-14.95		1.2776e+00		1.0000e+00
			-14.9		1.2938e+00		1.0000e+00
			-14.85		1.3100e+00		1.0000e+00
			-14.8		1.3263e+00		1.0000e+00
			-14.75		1.3425e+00		1.0000e+00
			-14.7		1.3587e+00		1.0000e+00
			-14.65		1.3750e+00		1.0000e+00
			-14.6		1.3912e+00		1.0000e+00
			-14.55		1.4074e+00		1.0000e+00
			-14.5		1.4237e+00		1.0000e+00
			-14.45		1.4399e+00		1.0000e+00
			-14.4		1.4562e+00		1.0000e+00
			-14.35		1.4724e+00		1.0000e+00
			-14.3		1.4886e+00		1.0000e+00
			-14.25		1.5049e+00		1.0000e+00
			-14.2		1.5211e+00		1.0000e+00
			-14.15		1.5374e+00		1.0000e+00
			-14.1		1.5677e+00		1.0000e+00
			-14.05		1.5980e+00		1.0000e+00
			-14.0		1.6283e+00		1.0000e+00
			-13.95		1.6586e+00		1.0000e+00
			-13.9		1.6888e+00		1.0000e+00
			-13.85		1.7190e+00		1.0000e+00
			-13.8		1.7492e+00		1.0000e+00
			-13.75		1.7794e+00		1.0000e+00
			-13.7		1.8676e+00		1.0000e+00
			-13.65		1.9557e+00		1.0000e+00
			-13.6		2.0439e+00		1.0000e+00
			-13.55		2.1321e+00		1.0000e+00
			-13.5		2.4267e+00		1.0000e+00
			-13.45		2.7214e+00		1.0000e+00
			-13.4		3.0161e+00		1.0000e+00
			-13.35		3.3108e+00		1.0000e+00
			-13.3		3.7520e+00		1.0000e+00
			-13.25		4.1933e+00		1.0000e+00
			-13.2		4.6346e+00		1.0000e+00
			-13.15		5.0758e+00		1.0000e+00
			-13.1		5.3240e+00		1.0000e+00
			-13.05		5.5723e+00		1.0000e+00
			-13.0		5.8205e+00		1.0000e+00
			-12.95		6.0687e+00		1.0000e+00
			-12.9		6.1685e+00		1.0000e+00
			-12.85		6.2682e+00		1.0000e+00
			-12.8		6.3680e+00		1.0000e+00
			-12.75		6.4677e+00		1.0000e+00
			-12.7		6.5161e+00		1.0000e+00
			-12.65		6.5645e+00		1.0000e+00
			-12.6		6.6128e+00		1.0000e+00
			-12.55		6.6612e+00		1.0000e+00
			-12.5		6.6897e+00		1.0000e+00
			-12.45		6.7182e+00		1.0000e+00
			-12.4		6.7467e+00		1.0000e+00
			-12.35		6.7753e+00		1.0000e+00
			-12.3		6.7957e+00		1.0000e+00
			-12.25		6.8161e+00		1.0000e+00
			-12.2		6.8365e+00		1.0000e+00
			-12.15		6.8570e+00		1.0000e+00
			-12.1		6.8744e+00		1.0000e+00
			-12.05		6.8918e+00		1.0000e+00
			-12.0		6.9093e+00		1.0000e+00
			-11.95		6.9267e+00		1.0000e+00
			-11.9		6.9436e+00		1.0000e+00
			-11.85		6.9604e+00		1.0000e+00
			-11.8		6.9773e+00		1.0000e+00
			-11.75		6.9942e+00		1.0000e+00
			-11.7		7.0115e+00		1.0000e+00
			-11.65		7.0289e+00		1.0000e+00
			-11.6		7.0462e+00		1.0000e+00
			-11.55		7.0636e+00		1.0000e+00
			-11.5		7.0811e+00		1.0000e+00
			-11.45		7.0986e+00		1.0000e+00
			-11.4		7.1160e+00		1.0000e+00
			-11.35		7.1335e+00		1.0000e+00
			-11.3		7.1480e+00		1.0000e+00
			-11.25		7.1625e+00		1.0000e+00
			-11.2		7.1769e+00		1.0000e+00
			-11.15		7.1914e+00		1.0000e+00
			-11.1		7.2058e+00		1.0000e+00
			-11.05		7.2203e+00		1.0000e+00
			-11.0		7.2347e+00		1.0000e+00
			-10.95		7.2491e+00		1.0000e+00
			-10.9		7.2621e+00		1.0000e+00
			-10.85		7.2751e+00		1.0000e+00
			-10.8		7.2880e+00		1.0000e+00
			-10.75		7.3010e+00		1.0000e+00
			-10.7		7.3132e+00		1.0000e+00
			-10.65		7.3254e+00		1.0000e+00
			-10.6		7.3377e+00		1.0000e+00
			-10.55		7.3499e+00		1.0000e+00
			-10.5		7.3623e+00		1.0000e+00
			-10.45		7.3747e+00		1.0000e+00
			-10.4		7.3871e+00		1.0000e+00
			-10.35		7.3995e+00		1.0000e+00
			-10.3		7.4120e+00		1.0000e+00
			-10.25		7.4245e+00		1.0000e+00
			-10.2		7.4371e+00		1.0000e+00
			-10.15		7.4496e+00		1.0000e+00
			-10.1		7.4629e+00		1.0000e+00
			-10.05		7.4762e+00		1.0000e+00
			-10.0		7.4895e+00		1.0000e+00
			-9.95		7.5028e+00		1.0000e+00
			-9.9		7.5130e+00		1.0000e+00
			-9.85		7.5232e+00		1.0000e+00
			-9.8		7.5335e+00		1.0000e+00
			-9.75		7.5437e+00		1.0000e+00
			-9.7		7.5556e+00		1.0000e+00
			-9.65		7.5675e+00		1.0000e+00
			-9.6		7.5795e+00		1.0000e+00
			-9.55		7.5914e+00		1.0000e+00
			-9.5		7.6030e+00		1.0000e+00
			-9.45		7.6146e+00		1.0000e+00
			-9.4		7.6263e+00		1.0000e+00
			-9.35		7.6379e+00		1.0000e+00
			-9.3		7.6500e+00		1.0000e+00
			-9.25		7.6621e+00		1.0000e+00
			-9.2		7.6742e+00		1.0000e+00
			-9.15		7.6863e+00		1.0000e+00
			-9.1		7.6965e+00		1.0000e+00
			-9.05		7.7066e+00		1.0000e+00
			-9.0		7.7167e+00		1.0000e+00
			-8.95		7.7269e+00		1.0000e+00
			-8.9		7.7353e+00		1.0000e+00
			-8.85		7.7437e+00		1.0000e+00
			-8.8		7.7521e+00		1.0000e+00
			-8.75		7.7606e+00		1.0000e+00
			-8.7		7.7700e+00		1.0000e+00
			-8.65		7.7795e+00		1.0000e+00
			-8.6		7.7889e+00		1.0000e+00
			-8.55		7.7984e+00		1.0000e+00
			-8.5		7.8065e+00		1.0000e+00
			-8.45		7.8146e+00		1.0000e+00
			-8.4		7.8227e+00		1.0000e+00
			-8.35		7.8308e+00		1.0000e+00
			-8.3		7.8384e+00		1.0000e+00
			-8.25		7.8460e+00		1.0000e+00
			-8.2		7.8536e+00		1.0000e+00
			-8.15		7.8612e+00		1.0000e+00
			-8.1		7.8694e+00		1.0000e+00
			-8.05		7.8777e+00		1.0000e+00
			-8.0		7.8859e+00		1.0000e+00
			-7.95		7.8941e+00		1.0000e+00
			-7.9		7.9010e+00		1.0000e+00
			-7.85		7.9079e+00		1.0000e+00
			-7.8		7.9149e+00		1.0000e+00
			-7.75		7.9218e+00		1.0000e+00
			-7.7		7.9301e+00		1.0000e+00
			-7.65		7.9384e+00		1.0000e+00
			-7.6		7.9467e+00		1.0000e+00
			-7.55		7.9550e+00		1.0000e+00
			-7.5		7.9625e+00		1.0000e+00
			-7.45		7.9699e+00		1.0000e+00
			-7.4		7.9773e+00		1.0000e+00
			-7.35		7.9847e+00		1.0000e+00
			-7.3		7.9933e+00		1.0000e+00
			-7.25		8.0020e+00		1.0000e+00
			-7.2		8.0107e+00		1.0000e+00
			-7.15		8.0193e+00		1.0000e+00
			-7.1		8.0269e+00		1.0000e+00
			-7.05		8.0345e+00		1.0000e+00
			-7.0		8.0422e+00		1.0000e+00
			-6.95		8.0498e+00		1.0000e+00
			-6.9		8.0560e+00		1.0000e+00
			-6.85		8.0623e+00		1.0000e+00
			-6.8		8.0686e+00		1.0000e+00
			-6.75		8.0748e+00		1.0000e+00
			-6.7		8.0817e+00		1.0000e+00
			-6.65		8.0885e+00		1.0000e+00
			-6.6		8.0953e+00		1.0000e+00
			-6.55		8.1022e+00		1.0000e+00
			-6.5		8.1082e+00		1.0000e+00
			-6.45		8.1143e+00		1.0000e+00
			-6.4		8.1204e+00		1.0000e+00
			-6.35		8.1265e+00		1.0000e+00
			-6.3		8.1327e+00		1.0000e+00
			-6.25		8.1388e+00		1.0000e+00
			-6.2		8.1450e+00		1.0000e+00
			-6.15		8.1512e+00		1.0000e+00
			-6.1		8.1573e+00		1.0000e+00
			-6.05		8.1634e+00		1.0000e+00
			-6.0		8.1696e+00		1.0000e+00
			-5.95		8.1757e+00		1.0000e+00
			-5.9		8.1820e+00		1.0000e+00
			-5.85		8.1884e+00		1.0000e+00
			-5.8		8.1947e+00		1.0000e+00
			-5.75		8.2011e+00		1.0000e+00
			-5.7		8.2059e+00		1.0000e+00
			-5.65		8.2108e+00		1.0000e+00
			-5.6		8.2156e+00		1.0000e+00
			-5.55		8.2205e+00		1.0000e+00
			-5.5		8.2261e+00		1.0000e+00
			-5.45		8.2317e+00		1.0000e+00
			-5.4		8.2373e+00		1.0000e+00
			-5.35		8.2429e+00		1.0000e+00
			-5.3		8.2477e+00		1.0000e+00
			-5.25		8.2525e+00		1.0000e+00
			-5.2		8.2573e+00		1.0000e+00
			-5.15		8.2621e+00		1.0000e+00
			-5.1		8.2661e+00		1.0000e+00
			-5.05		8.2701e+00		1.0000e+00
			-5.0		8.2741e+00		1.0000e+00
			-4.95		8.2781e+00		1.0000e+00
			-4.9		8.2825e+00		1.0000e+00
			-4.85		8.2868e+00		1.0000e+00
			-4.8		8.2912e+00		1.0000e+00
			-4.75		8.2955e+00		1.0000e+00
			-4.7		8.2995e+00		1.0000e+00
			-4.65		8.3036e+00		1.0000e+00
			-4.6		8.3076e+00		1.0000e+00
			-4.55		8.3116e+00		1.0000e+00
			-4.5		8.3154e+00		1.0000e+00
			-4.45		8.3191e+00		1.0000e+00
			-4.4		8.3228e+00		1.0000e+00
			-4.35		8.3266e+00		1.0000e+00
			-4.3		8.3297e+00		1.0000e+00
			-4.25		8.3329e+00		1.0000e+00
			-4.2		8.3360e+00		1.0000e+00
			-4.15		8.3392e+00		1.0000e+00
			-4.1		8.3414e+00		1.0000e+00
			-4.05		8.3436e+00		1.0000e+00
			-4.0		8.3457e+00		1.0000e+00
			-3.95		8.3479e+00		1.0000e+00
			-3.9		8.3506e+00		1.0000e+00
			-3.85		8.3532e+00		1.0000e+00
			-3.8		8.3558e+00		1.0000e+00
			-3.75		8.3584e+00		1.0000e+00
			-3.7		8.3609e+00		1.0000e+00
			-3.65		8.3634e+00		1.0000e+00
			-3.6		8.3659e+00		1.0000e+00
			-3.55		8.3684e+00		1.0000e+00
			-3.5		8.3703e+00		1.0000e+00
			-3.45		8.3721e+00		1.0000e+00
			-3.4		8.3739e+00		1.0000e+00
			-3.35		8.3757e+00		1.0000e+00
			-3.3		8.3770e+00		1.0000e+00
			-3.25		8.3783e+00		1.0000e+00
			-3.2		8.3796e+00		1.0000e+00
			-3.15		8.3809e+00		1.0000e+00
			-3.1		8.3825e+00		1.0000e+00
			-3.05		8.3841e+00		1.0000e+00
			-3.0		8.3856e+00		1.0000e+00
			-2.95		8.3872e+00		1.0000e+00
			-2.9		8.3888e+00		1.0000e+00
			-2.85		8.3904e+00		1.0000e+00
			-2.8		8.3921e+00		1.0000e+00
			-2.75		8.3937e+00		1.0000e+00
			-2.7		8.3951e+00		1.0000e+00
			-2.65		8.3966e+00		1.0000e+00
			-2.6		8.3981e+00		1.0000e+00
			-2.55		8.3996e+00		1.0000e+00
			-2.5		8.4004e+00		1.0000e+00
			-2.45		8.4013e+00		1.0000e+00
			-2.4		8.4022e+00		1.0000e+00
			-2.35		8.4031e+00		1.0000e+00
			-2.3		8.4027e+00		1.0000e+00
			-2.25		8.4024e+00		1.0000e+00
			-2.2		8.4021e+00		1.0000e+00
			-2.15		8.4017e+00		1.0000e+00
			-2.1		8.4023e+00		1.0000e+00
			-2.05		8.4029e+00		1.0000e+00
			-2.0		8.4035e+00		1.0000e+00
			-1.95		8.4042e+00		1.0000e+00
			-1.9		8.4044e+00		1.0000e+00
			-1.85		8.4047e+00		1.0000e+00
			-1.8		8.4049e+00		1.0000e+00
			-1.75		8.4052e+00		1.0000e+00
			-1.7		8.4062e+00		1.0000e+00
			-1.65		8.4072e+00		1.0000e+00
			-1.6		8.4082e+00		1.0000e+00
			-1.55		8.4092e+00		1.0000e+00
			-1.5		8.4101e+00		1.0000e+00
			-1.45		8.4110e+00		1.0000e+00
			-1.4		8.4118e+00		1.0000e+00
			-1.35		8.4127e+00		1.0000e+00
			-1.3		8.4133e+00		1.0000e+00
			-1.25		8.4139e+00		1.0000e+00
			-1.2		8.4145e+00		1.0000e+00
			-1.15		8.4151e+00		1.0000e+00
			-1.1		8.4146e+00		1.0000e+00
			-1.05		8.4140e+00		1.0000e+00
			-1.0		8.4135e+00		1.0000e+00
			-0.95		8.4129e+00		1.0000e+00
			-0.9		8.4138e+00		1.0000e+00
			-0.85		8.4147e+00		1.0000e+00
			-0.8		8.4156e+00		1.0000e+00
			-0.75		8.4164e+00		1.0000e+00
			-0.7		8.4171e+00		1.0000e+00
			-0.65		8.4178e+00		1.0000e+00
			-0.6		8.4184e+00		1.0000e+00
			-0.55		8.4191e+00		1.0000e+00
			-0.5		8.4186e+00		1.0000e+00
			-0.45		8.4180e+00		1.0000e+00
			-0.4		8.4175e+00		1.0000e+00
			-0.35		8.4169e+00		1.0000e+00
			-0.3		8.4164e+00		1.0000e+00
			-0.25		8.4158e+00		1.0000e+00
			-0.2		8.4153e+00		1.0000e+00
			-0.15		8.4148e+00		1.0000e+00
			-0.1		8.4150e+00		1.0000e+00
			-0.05		8.4152e+00		1.0000e+00
			0.0		8.4154e+00		1.0000e+00
			0.05		8.4156e+00		1.0000e+00
			0.1		8.4160e+00		1.0000e+00
			0.15		8.4165e+00		1.0000e+00
			0.2		8.4169e+00		1.0000e+00
			0.25		8.4174e+00		1.0000e+00
			0.3		8.4177e+00		1.0000e+00
			0.35		8.4181e+00		1.0000e+00
			0.4		8.4184e+00		1.0000e+00
			0.45		8.4188e+00		1.0000e+00
			0.5		8.4185e+00		1.0000e+00
			0.55		8.4183e+00		1.0000e+00
			0.6		8.4180e+00		1.0000e+00
			0.65		8.4178e+00		1.0000e+00
			0.7		8.4178e+00		1.0000e+00
			0.75		8.4179e+00		1.0000e+00
			0.8		8.4180e+00		1.0000e+00
			0.85		8.4180e+00		1.0000e+00
			0.9		8.4193e+00		1.0000e+00
			0.95		8.4206e+00		1.0000e+00
			1.0		8.4219e+00		1.0000e+00
			1.05		8.4232e+00		1.0000e+00
			1.1		8.4228e+00		1.0000e+00
			1.15		8.4224e+00		1.0000e+00
			1.2		8.4219e+00		1.0000e+00
			1.25		8.4215e+00		1.0000e+00
			1.3		8.4207e+00		1.0000e+00
			1.35		8.4199e+00		1.0000e+00
			1.4		8.4191e+00		1.0000e+00
			1.45		8.4184e+00		1.0000e+00
			1.5		8.4179e+00		1.0000e+00
			1.55		8.4175e+00		1.0000e+00
			1.6		8.4171e+00		1.0000e+00
			1.65		8.4167e+00		1.0000e+00
			1.7		8.4169e+00		1.0000e+00
			1.75		8.4172e+00		1.0000e+00
			1.8		8.4174e+00		1.0000e+00
			1.85		8.4177e+00		1.0000e+00
			1.9		8.4175e+00		1.0000e+00
			1.95		8.4173e+00		1.0000e+00
			2.0		8.4171e+00		1.0000e+00
			2.05		8.4169e+00		1.0000e+00
			2.1		8.4185e+00		1.0000e+00
			2.15		8.4201e+00		1.0000e+00
			2.2		8.4217e+00		1.0000e+00
			2.25		8.4233e+00		1.0000e+00
			2.3		8.4232e+00		1.0000e+00
			2.35		8.4231e+00		1.0000e+00
			2.4		8.4230e+00		1.0000e+00
			2.45		8.4229e+00		1.0000e+00
			2.5		8.4219e+00		1.0000e+00
			2.55		8.4210e+00		1.0000e+00
			2.6		8.4200e+00		1.0000e+00
			2.65		8.4190e+00		1.0000e+00
			2.7		8.4187e+00		1.0000e+00
			2.75		8.4184e+00		1.0000e+00
			2.8		8.4180e+00		1.0000e+00
			2.85		8.4177e+00		1.0000e+00
			2.9		8.4182e+00		1.0000e+00
			2.95		8.4188e+00		1.0000e+00
			3.0		8.4193e+00		1.0000e+00
			3.05		8.4199e+00		1.0000e+00
			3.1		8.4178e+00		1.0000e+00
			3.15		8.4158e+00		1.0000e+00
			3.2		8.4137e+00		1.0000e+00
			3.25		8.4117e+00		1.0000e+00
			3.3		8.4106e+00		1.0000e+00
			3.35		8.4094e+00		1.0000e+00
			3.4		8.4083e+00		1.0000e+00
			3.45		8.4072e+00		1.0000e+00
			3.5		8.4042e+00		1.0000e+00
			3.55		8.4011e+00		1.0000e+00
			3.6		8.3981e+00		1.0000e+00
			3.65		8.3951e+00		1.0000e+00
			3.7		8.3932e+00		1.0000e+00
			3.75		8.3914e+00		1.0000e+00
			3.8		8.3895e+00		1.0000e+00
			3.85		8.3876e+00		1.0000e+00
			3.9		8.3863e+00		1.0000e+00
			3.95		8.3850e+00		1.0000e+00
			4.0		8.3837e+00		1.0000e+00
			4.05		8.3824e+00		1.0000e+00
			4.1		8.3810e+00		1.0000e+00
			4.15		8.3796e+00		1.0000e+00
			4.2		8.3782e+00		1.0000e+00
			4.25		8.3767e+00		1.0000e+00
			4.3		8.3776e+00		1.0000e+00
			4.35		8.3785e+00		1.0000e+00
			4.4		8.3794e+00		1.0000e+00
			4.45		8.3803e+00		1.0000e+00
			4.5		8.3890e+00		1.0000e+00
			4.55		8.3978e+00		1.0000e+00
			4.6		8.4066e+00		1.0000e+00
			4.65		8.4153e+00		1.0000e+00
			4.7		8.4549e+00		1.0000e+00
			4.75		8.4944e+00		1.0000e+00
			4.8		8.5340e+00		1.0000e+00
			4.85		8.5735e+00		1.0000e+00
			4.9		8.7425e+00		1.0000e+00
			4.95		8.9115e+00		1.0000e+00
			5.0		9.0806e+00		1.0000e+00
			5.05		9.2496e+00		1.0000e+00
			5.1		9.4012e+00		1.0000e+00
			5.15		9.5528e+00		1.0000e+00
			5.2		9.7044e+00		1.0000e+00
			5.25		9.8560e+00		1.0000e+00
			5.3		9.6297e+00		1.0000e+00
			5.35		9.4035e+00		1.0000e+00
			5.4		9.1772e+00		1.0000e+00
			5.45		8.9509e+00		1.0000e+00
			5.5		8.8179e+00		1.0000e+00
			5.55		8.6849e+00		1.0000e+00
			5.6		8.5518e+00		1.0000e+00
			5.65		8.4188e+00		1.0000e+00
			5.7		8.3851e+00		1.0000e+00
			5.75		8.3515e+00		1.0000e+00
			5.8		8.3178e+00		1.0000e+00
			5.85		8.2841e+00		1.0000e+00
			5.9		8.2703e+00		1.0000e+00
			5.95		8.2564e+00		1.0000e+00
			6.0		8.2425e+00		1.0000e+00
			6.05		8.2286e+00		1.0000e+00
			6.1		8.2174e+00		1.0000e+00
			6.15		8.2062e+00		1.0000e+00
			6.2		8.1949e+00		1.0000e+00
			6.25		8.1837e+00		1.0000e+00
			6.3		8.1749e+00		1.0000e+00
			6.35		8.1660e+00		1.0000e+00
			6.4		8.1572e+00		1.0000e+00
			6.45		8.1483e+00		1.0000e+00
			6.5		8.1412e+00		1.0000e+00
			6.55		8.1340e+00		1.0000e+00
			6.6		8.1269e+00		1.0000e+00
			6.65		8.1197e+00		1.0000e+00
			6.7		8.1128e+00		1.0000e+00
			6.75		8.1058e+00		1.0000e+00
			6.8		8.0988e+00		1.0000e+00
			6.85		8.0918e+00		1.0000e+00
			6.9		8.0824e+00		1.0000e+00
			6.95		8.0730e+00		1.0000e+00
			7.0		8.0635e+00		1.0000e+00
			7.05		8.0541e+00		1.0000e+00
			7.1		8.0441e+00		1.0000e+00
			7.15		8.0342e+00		1.0000e+00
			7.2		8.0242e+00		1.0000e+00
			7.25		8.0142e+00		1.0000e+00
			7.3		8.0064e+00		1.0000e+00
			7.35		7.9986e+00		1.0000e+00
			7.4		7.9907e+00		1.0000e+00
			7.45		7.9829e+00		1.0000e+00
			7.5		7.9743e+00		1.0000e+00
			7.55		7.9658e+00		1.0000e+00
			7.6		7.9573e+00		1.0000e+00
			7.65		7.9487e+00		1.0000e+00
			7.7		7.9421e+00		1.0000e+00
			7.75		7.9354e+00		1.0000e+00
			7.8		7.9287e+00		1.0000e+00
			7.85		7.9220e+00		1.0000e+00
			7.9		7.9135e+00		1.0000e+00
			7.95		7.9050e+00		1.0000e+00
			8.0		7.8965e+00		1.0000e+00
			8.05		7.8880e+00		1.0000e+00
			8.1		7.8804e+00		1.0000e+00
			8.15		7.8727e+00		1.0000e+00
			8.2		7.8651e+00		1.0000e+00
			8.25		7.8574e+00		1.0000e+00
			8.3		7.8489e+00		1.0000e+00
			8.35		7.8404e+00		1.0000e+00
			8.4		7.8319e+00		1.0000e+00
			8.45		7.8235e+00		1.0000e+00
			8.5		7.8137e+00		1.0000e+00
			8.55		7.8040e+00		1.0000e+00
			8.6		7.7943e+00		1.0000e+00
			8.65		7.7845e+00		1.0000e+00
			8.7		7.7757e+00		1.0000e+00
			8.75		7.7668e+00		1.0000e+00
			8.8		7.7580e+00		1.0000e+00
			8.85		7.7491e+00		1.0000e+00
			8.9		7.7389e+00		1.0000e+00
			8.95		7.7286e+00		1.0000e+00
			9.0		7.7184e+00		1.0000e+00
			9.05		7.7081e+00		1.0000e+00
			9.1		7.6959e+00		1.0000e+00
			9.15		7.6838e+00		1.0000e+00
			9.2		7.6716e+00		1.0000e+00
			9.25		7.6595e+00		1.0000e+00
			9.3		7.6472e+00		1.0000e+00
			9.35		7.6350e+00		1.0000e+00
			9.4		7.6228e+00		1.0000e+00
			9.45		7.6106e+00		1.0000e+00
			9.5		7.5982e+00		1.0000e+00
			9.55		7.5859e+00		1.0000e+00
			9.6		7.5735e+00		1.0000e+00
			9.65		7.5611e+00		1.0000e+00
			9.7		7.5493e+00		1.0000e+00
			9.75		7.5376e+00		1.0000e+00
			9.8		7.5258e+00		1.0000e+00
			9.85		7.5140e+00		1.0000e+00
			9.9		7.5020e+00		1.0000e+00
			9.95		7.4900e+00		1.0000e+00
			10.0		7.4779e+00		1.0000e+00
			10.05		7.4659e+00		1.0000e+00
			10.1		7.4535e+00		1.0000e+00
			10.15		7.4411e+00		1.0000e+00
			10.2		7.4288e+00		1.0000e+00
			10.25		7.4164e+00		1.0000e+00
			10.3		7.4038e+00		1.0000e+00
			10.35		7.3913e+00		1.0000e+00
			10.4		7.3787e+00		1.0000e+00
			10.45		7.3662e+00		1.0000e+00
			10.5		7.3537e+00		1.0000e+00
			10.55		7.3413e+00		1.0000e+00
			10.6		7.3288e+00		1.0000e+00
			10.65		7.3163e+00		1.0000e+00
			10.7		7.3031e+00		1.0000e+00
			10.75		7.2899e+00		1.0000e+00
			10.8		7.2767e+00		1.0000e+00
			10.85		7.2635e+00		1.0000e+00
			10.9		7.2488e+00		1.0000e+00
			10.95		7.2342e+00		1.0000e+00
			11.0		7.2195e+00		1.0000e+00
			11.05		7.2048e+00		1.0000e+00
			11.1		7.1898e+00		1.0000e+00
			11.15		7.1749e+00		1.0000e+00
			11.2		7.1599e+00		1.0000e+00
			11.25		7.1449e+00		1.0000e+00
			11.3		7.1277e+00		1.0000e+00
			11.35		7.1105e+00		1.0000e+00
			11.4		7.0933e+00		1.0000e+00
			11.45		7.0760e+00		1.0000e+00
			11.5		7.0588e+00		1.0000e+00
			11.55		7.0416e+00		1.0000e+00
			11.6		7.0243e+00		1.0000e+00
			11.65		7.0071e+00		1.0000e+00
			11.7		6.9899e+00		1.0000e+00
			11.75		6.9727e+00		1.0000e+00
			11.8		6.9556e+00		1.0000e+00
			11.85		6.9384e+00		1.0000e+00
			11.9		6.9206e+00		1.0000e+00
			11.95		6.9029e+00		1.0000e+00
			12.0		6.8851e+00		1.0000e+00
			12.05		6.8674e+00		1.0000e+00
			12.1		6.8471e+00		1.0000e+00
			12.15		6.8269e+00		1.0000e+00
			12.2		6.8067e+00		1.0000e+00
			12.25		6.7864e+00		1.0000e+00
			12.3		6.7579e+00		1.0000e+00
			12.35		6.7293e+00		1.0000e+00
			12.4		6.7008e+00		1.0000e+00
			12.45		6.6722e+00		1.0000e+00
			12.5		6.6235e+00		1.0000e+00
			12.55		6.5749e+00		1.0000e+00
			12.6		6.5262e+00		1.0000e+00
			12.65		6.4775e+00		1.0000e+00
			12.7		6.3779e+00		1.0000e+00
			12.75		6.2783e+00		1.0000e+00
			12.8		6.1787e+00		1.0000e+00
			12.85		6.0790e+00		1.0000e+00
			12.9		5.8306e+00		1.0000e+00
			12.95		5.5822e+00		1.0000e+00
			13.0		5.3337e+00		1.0000e+00
			13.05		5.0853e+00		1.0000e+00
			13.1		4.6439e+00		1.0000e+00
			13.15		4.2026e+00		1.0000e+00
			13.2		3.7612e+00		1.0000e+00
			13.25		3.3198e+00		1.0000e+00
			13.3		3.0239e+00		1.0000e+00
			13.35		2.7280e+00		1.0000e+00
			13.4		2.4320e+00		1.0000e+00
			13.45		2.1361e+00		1.0000e+00
			13.5		2.0739e+00		1.0000e+00
			13.55		2.0117e+00		1.0000e+00
			13.6		1.9496e+00		1.0000e+00
			13.65		1.8874e+00		1.0000e+00
			13.7		1.8252e+00		1.0000e+00
			13.75		1.7631e+00		1.0000e+00
			13.8		1.7009e+00		1.0000e+00
			13.85		1.6388e+00		1.0000e+00
			13.9		1.6197e+00		1.0000e+00
			13.95		1.6007e+00		1.0000e+00
