BEGIN_SCAN_DATA
	FORMAT=CC-Export V1.9                  
	FILE_CREATION_DATE=
	LAST_MODIFIED=11-Jan-2023 10:50:22
	BEGIN_SCAN  1
		TASK_NAME=RayStation Phantom Profiles & PDDs
		PROGRAM=RayStation
		COMMENT=RayStation Script Export
		MEAS_DATE=11-Jan-2023 10:50:22
		LINAC=RayStation
		MODALITY=X
		ISOCENTER=1000.00
		INPLANE_AXIS=Y
		CROSSPLANE_AXIS=X
		DEPTH_AXIS=Z
		INPLANE_AXIS_DIR=GUN_TARGET
		CROSSPLANE_AXIS_DIR=LEFT_RIGHT
		DEPTH_AXIS_DIR=UP_DOWN
		ENERGY=6.3
		NOMINAL_DMAX=20.00
		SSD=1000.0
		SCD=1000.00
		WEDGE_ANGLE=0.00
		FIELD_INPLANE=200.0
		FIELD_CROSSPLANE=200.0
		FIELD_TYPE=IRREGULAR
		GANTRY=0.00
		GANTRY_UPRIGHT_POSITION=0
		GANTRY_ROTATION=CW
		COLL_ANGLE=0.00
		REF_FIELD_DEPTH=50.00
		REF_FIELD_DEFINED=ISOCENTER
		FIELD_INPLANE=200.0
		FIELD_CROSSPLANE=200.0
		SCAN_CURVETYPE=CROSSPLANE_PROFILE
		SCAN_DEPTH=50.0
		SCAN_OFFAXIS_INPLANE=0.00
		SCAN_OFFAXIS_CROSSPLANE=0.00
		SCAN_ANGLE=0.00
		SCAN_DIAGONAL=NOT_DIAGONAL
		SCAN_DIRECTION=NEGATIVE
		MEAS_MEDIUM=WATER
		MEAS_UNIT=cGy
		INCLINATION_ANGLE=0.00
		PRESSURE=1013.20
		TEMPERATURE=20.00
		NORM_TEMPERATURE=20.00
		CORRECTION_FACTOR=1.0000;
		BEGIN_DATA
			-30.05		5.5935e-04		1.0000e+00
			-30.0		8.3902e-04		1.0000e+00
			-29.95		1.1187e-03		1.0000e+00
			-29.9		1.1262e-03		1.0000e+00
			-29.85		1.1338e-03		1.0000e+00
			-29.8		1.1414e-03		1.0000e+00
			-29.75		1.1489e-03		1.0000e+00
			-29.7		1.1953e-03		1.0000e+00
			-29.65		1.2417e-03		1.0000e+00
			-29.6		1.2881e-03		1.0000e+00
			-29.55		1.3345e-03		1.0000e+00
			-29.5		1.3444e-03		1.0000e+00
			-29.45		1.3543e-03		1.0000e+00
			-29.4		1.3642e-03		1.0000e+00
			-29.35		1.3741e-03		1.0000e+00
			-29.3		1.4313e-03		1.0000e+00
			-29.25		1.4886e-03		1.0000e+00
			-29.2		1.5459e-03		1.0000e+00
			-29.15		1.6031e-03		1.0000e+00
			-29.1		1.6161e-03		1.0000e+00
			-29.05		1.6291e-03		1.0000e+00
			-29.0		1.6421e-03		1.0000e+00
			-28.95		1.6552e-03		1.0000e+00
			-28.9		1.7253e-03		1.0000e+00
			-28.85		1.7954e-03		1.0000e+00
			-28.8		1.8656e-03		1.0000e+00
			-28.75		1.9357e-03		1.0000e+00
			-28.7		1.9535e-03		1.0000e+00
			-28.65		1.9712e-03		1.0000e+00
			-28.6		1.9890e-03		1.0000e+00
			-28.55		2.0067e-03		1.0000e+00
			-28.5		2.0932e-03		1.0000e+00
			-28.45		2.1797e-03		1.0000e+00
			-28.4		2.2662e-03		1.0000e+00
			-28.35		2.3527e-03		1.0000e+00
			-28.3		2.3763e-03		1.0000e+00
			-28.25		2.3999e-03		1.0000e+00
			-28.2		2.4235e-03		1.0000e+00
			-28.15		2.4471e-03		1.0000e+00
			-28.1		2.5524e-03		1.0000e+00
			-28.05		2.6577e-03		1.0000e+00
			-28.0		2.7631e-03		1.0000e+00
			-27.95		2.8684e-03		1.0000e+00
			-27.9		2.9001e-03		1.0000e+00
			-27.85		2.9319e-03		1.0000e+00
			-27.8		2.9636e-03		1.0000e+00
			-27.75		2.9954e-03		1.0000e+00
			-27.7		3.1213e-03		1.0000e+00
			-27.65		3.2471e-03		1.0000e+00
			-27.6		3.3730e-03		1.0000e+00
			-27.55		3.4988e-03		1.0000e+00
			-27.5		3.5432e-03		1.0000e+00
			-27.45		3.5876e-03		1.0000e+00
			-27.4		3.6320e-03		1.0000e+00
			-27.35		3.6764e-03		1.0000e+00
			-27.3		3.8281e-03		1.0000e+00
			-27.25		3.9798e-03		1.0000e+00
			-27.2		4.1314e-03		1.0000e+00
			-27.15		4.2831e-03		1.0000e+00
			-27.1		4.3427e-03		1.0000e+00
			-27.05		4.4023e-03		1.0000e+00
			-27.0		4.4619e-03		1.0000e+00
			-26.95		4.5216e-03		1.0000e+00
			-26.9		4.7081e-03		1.0000e+00
			-26.85		4.8946e-03		1.0000e+00
			-26.8		5.0812e-03		1.0000e+00
			-26.75		5.2677e-03		1.0000e+00
			-26.7		5.3473e-03		1.0000e+00
			-26.65		5.4269e-03		1.0000e+00
			-26.6		5.5065e-03		1.0000e+00
			-26.55		5.5861e-03		1.0000e+00
			-26.5		5.8061e-03		1.0000e+00
			-26.45		6.0260e-03		1.0000e+00
			-26.4		6.2460e-03		1.0000e+00
			-26.35		6.4659e-03		1.0000e+00
			-26.3		6.5735e-03		1.0000e+00
			-26.25		6.6811e-03		1.0000e+00
			-26.2		6.7887e-03		1.0000e+00
			-26.15		6.8963e-03		1.0000e+00
			-26.1		7.1558e-03		1.0000e+00
			-26.05		7.4154e-03		1.0000e+00
			-26.0		7.6749e-03		1.0000e+00
			-25.95		7.9344e-03		1.0000e+00
			-25.9		8.0736e-03		1.0000e+00
			-25.85		8.2128e-03		1.0000e+00
			-25.8		8.3520e-03		1.0000e+00
			-25.75		8.4913e-03		1.0000e+00
			-25.7		8.7967e-03		1.0000e+00
			-25.65		9.1022e-03		1.0000e+00
			-25.6		9.4077e-03		1.0000e+00
			-25.55		9.7132e-03		1.0000e+00
			-25.5		9.8884e-03		1.0000e+00
			-25.45		1.0064e-02		1.0000e+00
			-25.4		1.0239e-02		1.0000e+00
			-25.35		1.0414e-02		1.0000e+00
			-25.3		1.0765e-02		1.0000e+00
			-25.25		1.1116e-02		1.0000e+00
			-25.2		1.1468e-02		1.0000e+00
			-25.15		1.1819e-02		1.0000e+00
			-25.1		1.2046e-02		1.0000e+00
			-25.05		1.2274e-02		1.0000e+00
			-25.0		1.2502e-02		1.0000e+00
			-24.95		1.2729e-02		1.0000e+00
			-24.9		1.3130e-02		1.0000e+00
			-24.85		1.3531e-02		1.0000e+00
			-24.8		1.3932e-02		1.0000e+00
			-24.75		1.4333e-02		1.0000e+00
			-24.7		1.4621e-02		1.0000e+00
			-24.65		1.4909e-02		1.0000e+00
			-24.6		1.5196e-02		1.0000e+00
			-24.55		1.5484e-02		1.0000e+00
			-24.5		1.5943e-02		1.0000e+00
			-24.45		1.6401e-02		1.0000e+00
			-24.4		1.6860e-02		1.0000e+00
			-24.35		1.7318e-02		1.0000e+00
			-24.3		1.7686e-02		1.0000e+00
			-24.25		1.8055e-02		1.0000e+00
			-24.2		1.8423e-02		1.0000e+00
			-24.15		1.8791e-02		1.0000e+00
			-24.1		1.9303e-02		1.0000e+00
			-24.05		1.9815e-02		1.0000e+00
			-24.0		2.0328e-02		1.0000e+00
			-23.95		2.0840e-02		1.0000e+00
			-23.9		2.1302e-02		1.0000e+00
			-23.85		2.1763e-02		1.0000e+00
			-23.8		2.2224e-02		1.0000e+00
			-23.75		2.2686e-02		1.0000e+00
			-23.7		2.3253e-02		1.0000e+00
			-23.65		2.3820e-02		1.0000e+00
			-23.6		2.4387e-02		1.0000e+00
			-23.55		2.4953e-02		1.0000e+00
			-23.5		2.5526e-02		1.0000e+00
			-23.45		2.6099e-02		1.0000e+00
			-23.4		2.6671e-02		1.0000e+00
			-23.35		2.7244e-02		1.0000e+00
			-23.3		2.7862e-02		1.0000e+00
			-23.25		2.8480e-02		1.0000e+00
			-23.2		2.9097e-02		1.0000e+00
			-23.15		2.9715e-02		1.0000e+00
			-23.1		3.0432e-02		1.0000e+00
			-23.05		3.1149e-02		1.0000e+00
			-23.0		3.1866e-02		1.0000e+00
			-22.95		3.2583e-02		1.0000e+00
			-22.9		3.3246e-02		1.0000e+00
			-22.85		3.3909e-02		1.0000e+00
			-22.8		3.4572e-02		1.0000e+00
			-22.75		3.5235e-02		1.0000e+00
			-22.7		3.6110e-02		1.0000e+00
			-22.65		3.6986e-02		1.0000e+00
			-22.6		3.7862e-02		1.0000e+00
			-22.55		3.8737e-02		1.0000e+00
			-22.5		3.9446e-02		1.0000e+00
			-22.45		4.0155e-02		1.0000e+00
			-22.4		4.0863e-02		1.0000e+00
			-22.35		4.1572e-02		1.0000e+00
			-22.3		4.2631e-02		1.0000e+00
			-22.25		4.3689e-02		1.0000e+00
			-22.2		4.4748e-02		1.0000e+00
			-22.15		4.5807e-02		1.0000e+00
			-22.1		4.6551e-02		1.0000e+00
			-22.05		4.7296e-02		1.0000e+00
			-22.0		4.8041e-02		1.0000e+00
			-21.95		4.8785e-02		1.0000e+00
			-21.9		5.0064e-02		1.0000e+00
			-21.85		5.1343e-02		1.0000e+00
			-21.8		5.2621e-02		1.0000e+00
			-21.75		5.3900e-02		1.0000e+00
			-21.7		5.4679e-02		1.0000e+00
			-21.65		5.5457e-02		1.0000e+00
			-21.6		5.6236e-02		1.0000e+00
			-21.55		5.7014e-02		1.0000e+00
			-21.5		5.8509e-02		1.0000e+00
			-21.45		6.0004e-02		1.0000e+00
			-21.4		6.1498e-02		1.0000e+00
			-21.35		6.2993e-02		1.0000e+00
			-21.3		6.3822e-02		1.0000e+00
			-21.25		6.4651e-02		1.0000e+00
			-21.2		6.5480e-02		1.0000e+00
			-21.15		6.6310e-02		1.0000e+00
			-21.1		6.8045e-02		1.0000e+00
			-21.05		6.9780e-02		1.0000e+00
			-21.0		7.1515e-02		1.0000e+00
			-20.95		7.3251e-02		1.0000e+00
			-20.9		7.4095e-02		1.0000e+00
			-20.85		7.4939e-02		1.0000e+00
			-20.8		7.5784e-02		1.0000e+00
			-20.75		7.6628e-02		1.0000e+00
			-20.7		7.8645e-02		1.0000e+00
			-20.65		8.0662e-02		1.0000e+00
			-20.6		8.2680e-02		1.0000e+00
			-20.55		8.4697e-02		1.0000e+00
			-20.5		8.5568e-02		1.0000e+00
			-20.45		8.6440e-02		1.0000e+00
			-20.4		8.7311e-02		1.0000e+00
			-20.35		8.8183e-02		1.0000e+00
			-20.3		9.0454e-02		1.0000e+00
			-20.25		9.2725e-02		1.0000e+00
			-20.2		9.4996e-02		1.0000e+00
			-20.15		9.7266e-02		1.0000e+00
			-20.1		9.8197e-02		1.0000e+00
			-20.05		9.9128e-02		1.0000e+00
			-20.0		1.0006e-01		1.0000e+00
			-19.95		1.0099e-01		1.0000e+00
			-19.9		1.0354e-01		1.0000e+00
			-19.85		1.0609e-01		1.0000e+00
			-19.8		1.0865e-01		1.0000e+00
			-19.75		1.1120e-01		1.0000e+00
			-19.7		1.1211e-01		1.0000e+00
			-19.65		1.1302e-01		1.0000e+00
			-19.6		1.1394e-01		1.0000e+00
			-19.55		1.1485e-01		1.0000e+00
			-19.5		1.1773e-01		1.0000e+00
			-19.45		1.2061e-01		1.0000e+00
			-19.4		1.2349e-01		1.0000e+00
			-19.35		1.2637e-01		1.0000e+00
			-19.3		1.1481e-01		1.0000e+00
			-19.25		1.0325e-01		1.0000e+00
			-19.2		9.1687e-02		1.0000e+00
			-19.15		8.0128e-02		1.0000e+00
			-19.1		6.8593e-02		1.0000e+00
			-19.05		5.7057e-02		1.0000e+00
			-19.0		4.5522e-02		1.0000e+00
			-18.95		3.3992e-02		1.0000e+00
			-18.9		7.6631e-02		1.0000e+00
			-18.85		1.1927e-01		1.0000e+00
			-18.8		1.6191e-01		1.0000e+00
			-18.75		2.0455e-01		1.0000e+00
			-18.7		2.4722e-01		1.0000e+00
			-18.65		2.8989e-01		1.0000e+00
			-18.6		3.3257e-01		1.0000e+00
			-18.55		3.7524e-01		1.0000e+00
			-18.5		4.1795e-01		1.0000e+00
			-18.45		4.6065e-01		1.0000e+00
			-18.4		5.0336e-01		1.0000e+00
			-18.35		5.4606e-01		1.0000e+00
			-18.3		5.8880e-01		1.0000e+00
			-18.25		6.3154e-01		1.0000e+00
			-18.2		6.7428e-01		1.0000e+00
			-18.15		7.1702e-01		1.0000e+00
			-18.1		7.2206e-01		1.0000e+00
			-18.05		7.2709e-01		1.0000e+00
			-18.0		7.3212e-01		1.0000e+00
			-17.95		7.3716e-01		1.0000e+00
			-17.9		7.4220e-01		1.0000e+00
			-17.85		7.4724e-01		1.0000e+00
			-17.8		7.5227e-01		1.0000e+00
			-17.75		7.5731e-01		1.0000e+00
			-17.7		7.6235e-01		1.0000e+00
			-17.65		7.6739e-01		1.0000e+00
			-17.6		7.7243e-01		1.0000e+00
			-17.55		7.7747e-01		1.0000e+00
			-17.5		7.8252e-01		1.0000e+00
			-17.45		7.8756e-01		1.0000e+00
			-17.4		7.9261e-01		1.0000e+00
			-17.35		7.9765e-01		1.0000e+00
			-17.3		8.0433e-01		1.0000e+00
			-17.25		8.1100e-01		1.0000e+00
			-17.2		8.1768e-01		1.0000e+00
			-17.15		8.2435e-01		1.0000e+00
			-17.1		8.3103e-01		1.0000e+00
			-17.05		8.3771e-01		1.0000e+00
			-17.0		8.4439e-01		1.0000e+00
			-16.95		8.5107e-01		1.0000e+00
			-16.9		8.5775e-01		1.0000e+00
			-16.85		8.6444e-01		1.0000e+00
			-16.8		8.7112e-01		1.0000e+00
			-16.75		8.7780e-01		1.0000e+00
			-16.7		8.8449e-01		1.0000e+00
			-16.65		8.9118e-01		1.0000e+00
			-16.6		8.9787e-01		1.0000e+00
			-16.55		9.0456e-01		1.0000e+00
			-16.5		9.1240e-01		1.0000e+00
			-16.45		9.2024e-01		1.0000e+00
			-16.4		9.2808e-01		1.0000e+00
			-16.35		9.3593e-01		1.0000e+00
			-16.3		9.4377e-01		1.0000e+00
			-16.25		9.5162e-01		1.0000e+00
			-16.2		9.5947e-01		1.0000e+00
			-16.15		9.6732e-01		1.0000e+00
			-16.1		9.7517e-01		1.0000e+00
			-16.05		9.8302e-01		1.0000e+00
			-16.0		9.9087e-01		1.0000e+00
			-15.95		9.9872e-01		1.0000e+00
			-15.9		1.0066e+00		1.0000e+00
			-15.85		1.0144e+00		1.0000e+00
			-15.8		1.0223e+00		1.0000e+00
			-15.75		1.0302e+00		1.0000e+00
			-15.7		1.0409e+00		1.0000e+00
			-15.65		1.0517e+00		1.0000e+00
			-15.6		1.0625e+00		1.0000e+00
			-15.55		1.0732e+00		1.0000e+00
			-15.5		1.0840e+00		1.0000e+00
			-15.45		1.0948e+00		1.0000e+00
			-15.4		1.1056e+00		1.0000e+00
			-15.35		1.1164e+00		1.0000e+00
			-15.3		1.1272e+00		1.0000e+00
			-15.25		1.1379e+00		1.0000e+00
			-15.2		1.1487e+00		1.0000e+00
			-15.15		1.1595e+00		1.0000e+00
			-15.1		1.1703e+00		1.0000e+00
			-15.05		1.1811e+00		1.0000e+00
			-15.0		1.1919e+00		1.0000e+00
			-14.95		1.2027e+00		1.0000e+00
			-14.9		1.2203e+00		1.0000e+00
			-14.85		1.2380e+00		1.0000e+00
			-14.8		1.2556e+00		1.0000e+00
			-14.75		1.2733e+00		1.0000e+00
			-14.7		1.2909e+00		1.0000e+00
			-14.65		1.3086e+00		1.0000e+00
			-14.6		1.3262e+00		1.0000e+00
			-14.55		1.3439e+00		1.0000e+00
			-14.5		1.3616e+00		1.0000e+00
			-14.45		1.3792e+00		1.0000e+00
			-14.4		1.3969e+00		1.0000e+00
			-14.35		1.4145e+00		1.0000e+00
			-14.3		1.4322e+00		1.0000e+00
			-14.25		1.4498e+00		1.0000e+00
			-14.2		1.4675e+00		1.0000e+00
			-14.15		1.4852e+00		1.0000e+00
			-14.1		1.5293e+00		1.0000e+00
			-14.05		1.5735e+00		1.0000e+00
			-14.0		1.6176e+00		1.0000e+00
			-13.95		1.6618e+00		1.0000e+00
			-13.9		1.8119e+00		1.0000e+00
			-13.85		1.9620e+00		1.0000e+00
			-13.8		2.1121e+00		1.0000e+00
			-13.75		2.2622e+00		1.0000e+00
			-13.7		2.6005e+00		1.0000e+00
			-13.65		2.9389e+00		1.0000e+00
			-13.6		3.2772e+00		1.0000e+00
			-13.55		3.6156e+00		1.0000e+00
			-13.5		3.9133e+00		1.0000e+00
			-13.45		4.2111e+00		1.0000e+00
			-13.4		4.5089e+00		1.0000e+00
			-13.35		4.8066e+00		1.0000e+00
			-13.3		4.9394e+00		1.0000e+00
			-13.25		5.0722e+00		1.0000e+00
			-13.2		5.2050e+00		1.0000e+00
			-13.15		5.3378e+00		1.0000e+00
			-13.1		5.3952e+00		1.0000e+00
			-13.05		5.4526e+00		1.0000e+00
			-13.0		5.5100e+00		1.0000e+00
			-12.95		5.5674e+00		1.0000e+00
			-12.9		5.5971e+00		1.0000e+00
			-12.85		5.6269e+00		1.0000e+00
			-12.8		5.6566e+00		1.0000e+00
			-12.75		5.6864e+00		1.0000e+00
			-12.7		5.7068e+00		1.0000e+00
			-12.65		5.7271e+00		1.0000e+00
			-12.6		5.7475e+00		1.0000e+00
			-12.55		5.7678e+00		1.0000e+00
			-12.5		5.7834e+00		1.0000e+00
			-12.45		5.7990e+00		1.0000e+00
			-12.4		5.8146e+00		1.0000e+00
			-12.35		5.8302e+00		1.0000e+00
			-12.3		5.8454e+00		1.0000e+00
			-12.25		5.8605e+00		1.0000e+00
			-12.2		5.8757e+00		1.0000e+00
			-12.15		5.8909e+00		1.0000e+00
			-12.1		5.9050e+00		1.0000e+00
			-12.05		5.9192e+00		1.0000e+00
			-12.0		5.9333e+00		1.0000e+00
			-11.95		5.9474e+00		1.0000e+00
			-11.9		5.9616e+00		1.0000e+00
			-11.85		5.9757e+00		1.0000e+00
			-11.8		5.9899e+00		1.0000e+00
			-11.75		6.0040e+00		1.0000e+00
			-11.7		6.0169e+00		1.0000e+00
			-11.65		6.0298e+00		1.0000e+00
			-11.6		6.0427e+00		1.0000e+00
			-11.55		6.0556e+00		1.0000e+00
			-11.5		6.0703e+00		1.0000e+00
			-11.45		6.0850e+00		1.0000e+00
			-11.4		6.0997e+00		1.0000e+00
			-11.35		6.1144e+00		1.0000e+00
			-11.3		6.1268e+00		1.0000e+00
			-11.25		6.1392e+00		1.0000e+00
			-11.2		6.1516e+00		1.0000e+00
			-11.15		6.1640e+00		1.0000e+00
			-11.1		6.1744e+00		1.0000e+00
			-11.05		6.1849e+00		1.0000e+00
			-11.0		6.1954e+00		1.0000e+00
			-10.95		6.2058e+00		1.0000e+00
			-10.9		6.2162e+00		1.0000e+00
			-10.85		6.2266e+00		1.0000e+00
			-10.8		6.2369e+00		1.0000e+00
			-10.75		6.2473e+00		1.0000e+00
			-10.7		6.2578e+00		1.0000e+00
			-10.65		6.2684e+00		1.0000e+00
			-10.6		6.2789e+00		1.0000e+00
			-10.55		6.2894e+00		1.0000e+00
			-10.5		6.3003e+00		1.0000e+00
			-10.45		6.3112e+00		1.0000e+00
			-10.4		6.3220e+00		1.0000e+00
			-10.35		6.3329e+00		1.0000e+00
			-10.3		6.3424e+00		1.0000e+00
			-10.25		6.3519e+00		1.0000e+00
			-10.2		6.3615e+00		1.0000e+00
			-10.15		6.3710e+00		1.0000e+00
			-10.1		6.3804e+00		1.0000e+00
			-10.05		6.3898e+00		1.0000e+00
			-10.0		6.3992e+00		1.0000e+00
			-9.95		6.4086e+00		1.0000e+00
			-9.9		6.4190e+00		1.0000e+00
			-9.85		6.4294e+00		1.0000e+00
			-9.8		6.4397e+00		1.0000e+00
			-9.75		6.4501e+00		1.0000e+00
			-9.7		6.4599e+00		1.0000e+00
			-9.65		6.4698e+00		1.0000e+00
			-9.6		6.4797e+00		1.0000e+00
			-9.55		6.4895e+00		1.0000e+00
			-9.5		6.4995e+00		1.0000e+00
			-9.45		6.5096e+00		1.0000e+00
			-9.4		6.5196e+00		1.0000e+00
			-9.35		6.5297e+00		1.0000e+00
			-9.3		6.5381e+00		1.0000e+00
			-9.25		6.5465e+00		1.0000e+00
			-9.2		6.5549e+00		1.0000e+00
			-9.15		6.5632e+00		1.0000e+00
			-9.1		6.5719e+00		1.0000e+00
			-9.05		6.5805e+00		1.0000e+00
			-9.0		6.5891e+00		1.0000e+00
			-8.95		6.5977e+00		1.0000e+00
			-8.9		6.6064e+00		1.0000e+00
			-8.85		6.6152e+00		1.0000e+00
			-8.8		6.6239e+00		1.0000e+00
			-8.75		6.6326e+00		1.0000e+00
			-8.7		6.6394e+00		1.0000e+00
			-8.65		6.6461e+00		1.0000e+00
			-8.6		6.6528e+00		1.0000e+00
			-8.55		6.6595e+00		1.0000e+00
			-8.5		6.6660e+00		1.0000e+00
			-8.45		6.6726e+00		1.0000e+00
			-8.4		6.6791e+00		1.0000e+00
			-8.35		6.6857e+00		1.0000e+00
			-8.3		6.6926e+00		1.0000e+00
			-8.25		6.6994e+00		1.0000e+00
			-8.2		6.7063e+00		1.0000e+00
			-8.15		6.7131e+00		1.0000e+00
			-8.1		6.7189e+00		1.0000e+00
			-8.05		6.7246e+00		1.0000e+00
			-8.0		6.7304e+00		1.0000e+00
			-7.95		6.7361e+00		1.0000e+00
			-7.9		6.7429e+00		1.0000e+00
			-7.85		6.7497e+00		1.0000e+00
			-7.8		6.7565e+00		1.0000e+00
			-7.75		6.7633e+00		1.0000e+00
			-7.7		6.7702e+00		1.0000e+00
			-7.65		6.7771e+00		1.0000e+00
			-7.6		6.7840e+00		1.0000e+00
			-7.55		6.7909e+00		1.0000e+00
			-7.5		6.7979e+00		1.0000e+00
			-7.45		6.8050e+00		1.0000e+00
			-7.4		6.8120e+00		1.0000e+00
			-7.35		6.8190e+00		1.0000e+00
			-7.3		6.8258e+00		1.0000e+00
			-7.25		6.8325e+00		1.0000e+00
			-7.2		6.8393e+00		1.0000e+00
			-7.15		6.8460e+00		1.0000e+00
			-7.1		6.8524e+00		1.0000e+00
			-7.05		6.8588e+00		1.0000e+00
			-7.0		6.8652e+00		1.0000e+00
			-6.95		6.8715e+00		1.0000e+00
			-6.9		6.8779e+00		1.0000e+00
			-6.85		6.8843e+00		1.0000e+00
			-6.8		6.8906e+00		1.0000e+00
			-6.75		6.8970e+00		1.0000e+00
			-6.7		6.9025e+00		1.0000e+00
			-6.65		6.9081e+00		1.0000e+00
			-6.6		6.9137e+00		1.0000e+00
			-6.55		6.9192e+00		1.0000e+00
			-6.5		6.9245e+00		1.0000e+00
			-6.45		6.9298e+00		1.0000e+00
			-6.4		6.9351e+00		1.0000e+00
			-6.35		6.9404e+00		1.0000e+00
			-6.3		6.9456e+00		1.0000e+00
			-6.25		6.9508e+00		1.0000e+00
			-6.2		6.9560e+00		1.0000e+00
			-6.15		6.9612e+00		1.0000e+00
			-6.1		6.9664e+00		1.0000e+00
			-6.05		6.9716e+00		1.0000e+00
			-6.0		6.9767e+00		1.0000e+00
			-5.95		6.9819e+00		1.0000e+00
			-5.9		6.9862e+00		1.0000e+00
			-5.85		6.9905e+00		1.0000e+00
			-5.8		6.9947e+00		1.0000e+00
			-5.75		6.9990e+00		1.0000e+00
			-5.7		7.0039e+00		1.0000e+00
			-5.65		7.0088e+00		1.0000e+00
			-5.6		7.0137e+00		1.0000e+00
			-5.55		7.0186e+00		1.0000e+00
			-5.5		7.0235e+00		1.0000e+00
			-5.45		7.0285e+00		1.0000e+00
			-5.4		7.0335e+00		1.0000e+00
			-5.35		7.0384e+00		1.0000e+00
			-5.3		7.0429e+00		1.0000e+00
			-5.25		7.0474e+00		1.0000e+00
			-5.2		7.0519e+00		1.0000e+00
			-5.15		7.0563e+00		1.0000e+00
			-5.1		7.0607e+00		1.0000e+00
			-5.05		7.0651e+00		1.0000e+00
			-5.0		7.0694e+00		1.0000e+00
			-4.95		7.0738e+00		1.0000e+00
			-4.9		7.0778e+00		1.0000e+00
			-4.85		7.0818e+00		1.0000e+00
			-4.8		7.0857e+00		1.0000e+00
			-4.75		7.0897e+00		1.0000e+00
			-4.7		7.0934e+00		1.0000e+00
			-4.65		7.0970e+00		1.0000e+00
			-4.6		7.1007e+00		1.0000e+00
			-4.55		7.1043e+00		1.0000e+00
			-4.5		7.1081e+00		1.0000e+00
			-4.45		7.1119e+00		1.0000e+00
			-4.4		7.1157e+00		1.0000e+00
			-4.35		7.1194e+00		1.0000e+00
			-4.3		7.1227e+00		1.0000e+00
			-4.25		7.1260e+00		1.0000e+00
			-4.2		7.1293e+00		1.0000e+00
			-4.15		7.1326e+00		1.0000e+00
			-4.1		7.1348e+00		1.0000e+00
			-4.05		7.1370e+00		1.0000e+00
			-4.0		7.1393e+00		1.0000e+00
			-3.95		7.1415e+00		1.0000e+00
			-3.9		7.1436e+00		1.0000e+00
			-3.85		7.1458e+00		1.0000e+00
			-3.8		7.1479e+00		1.0000e+00
			-3.75		7.1500e+00		1.0000e+00
			-3.7		7.1517e+00		1.0000e+00
			-3.65		7.1535e+00		1.0000e+00
			-3.6		7.1552e+00		1.0000e+00
			-3.55		7.1570e+00		1.0000e+00
			-3.5		7.1579e+00		1.0000e+00
			-3.45		7.1589e+00		1.0000e+00
			-3.4		7.1599e+00		1.0000e+00
			-3.35		7.1608e+00		1.0000e+00
			-3.3		7.1615e+00		1.0000e+00
			-3.25		7.1621e+00		1.0000e+00
			-3.2		7.1628e+00		1.0000e+00
			-3.15		7.1634e+00		1.0000e+00
			-3.1		7.1642e+00		1.0000e+00
			-3.05		7.1650e+00		1.0000e+00
			-3.0		7.1658e+00		1.0000e+00
			-2.95		7.1666e+00		1.0000e+00
			-2.9		7.1675e+00		1.0000e+00
			-2.85		7.1685e+00		1.0000e+00
			-2.8		7.1695e+00		1.0000e+00
			-2.75		7.1705e+00		1.0000e+00
			-2.7		7.1713e+00		1.0000e+00
			-2.65		7.1722e+00		1.0000e+00
			-2.6		7.1730e+00		1.0000e+00
			-2.55		7.1738e+00		1.0000e+00
			-2.5		7.1738e+00		1.0000e+00
			-2.45		7.1737e+00		1.0000e+00
			-2.4		7.1736e+00		1.0000e+00
			-2.35		7.1735e+00		1.0000e+00
			-2.3		7.1741e+00		1.0000e+00
			-2.25		7.1747e+00		1.0000e+00
			-2.2		7.1753e+00		1.0000e+00
			-2.15		7.1759e+00		1.0000e+00
			-2.1		7.1767e+00		1.0000e+00
			-2.05		7.1776e+00		1.0000e+00
			-2.0		7.1785e+00		1.0000e+00
			-1.95		7.1794e+00		1.0000e+00
			-1.9		7.1797e+00		1.0000e+00
			-1.85		7.1800e+00		1.0000e+00
			-1.8		7.1803e+00		1.0000e+00
			-1.75		7.1806e+00		1.0000e+00
			-1.7		7.1811e+00		1.0000e+00
			-1.65		7.1815e+00		1.0000e+00
			-1.6		7.1820e+00		1.0000e+00
			-1.55		7.1824e+00		1.0000e+00
			-1.5		7.1825e+00		1.0000e+00
			-1.45		7.1825e+00		1.0000e+00
			-1.4		7.1826e+00		1.0000e+00
			-1.35		7.1826e+00		1.0000e+00
			-1.3		7.1828e+00		1.0000e+00
			-1.25		7.1831e+00		1.0000e+00
			-1.2		7.1833e+00		1.0000e+00
			-1.15		7.1835e+00		1.0000e+00
			-1.1		7.1828e+00		1.0000e+00
			-1.05		7.1822e+00		1.0000e+00
			-1.0		7.1816e+00		1.0000e+00
			-0.95		7.1809e+00		1.0000e+00
			-0.9		7.1810e+00		1.0000e+00
			-0.85		7.1810e+00		1.0000e+00
			-0.8		7.1811e+00		1.0000e+00
			-0.75		7.1812e+00		1.0000e+00
			-0.7		7.1810e+00		1.0000e+00
			-0.65		7.1809e+00		1.0000e+00
			-0.6		7.1807e+00		1.0000e+00
			-0.55		7.1806e+00		1.0000e+00
			-0.5		7.1800e+00		1.0000e+00
			-0.45		7.1794e+00		1.0000e+00
			-0.4		7.1788e+00		1.0000e+00
			-0.35		7.1782e+00		1.0000e+00
			-0.3		7.1779e+00		1.0000e+00
			-0.25		7.1775e+00		1.0000e+00
			-0.2		7.1772e+00		1.0000e+00
			-0.15		7.1769e+00		1.0000e+00
			-0.1		7.1769e+00		1.0000e+00
			-0.05		7.1770e+00		1.0000e+00
			0.0		7.1770e+00		1.0000e+00
			0.05		7.1771e+00		1.0000e+00
			0.1		7.1775e+00		1.0000e+00
			0.15		7.1779e+00		1.0000e+00
			0.2		7.1784e+00		1.0000e+00
			0.25		7.1788e+00		1.0000e+00
			0.3		7.1795e+00		1.0000e+00
			0.35		7.1802e+00		1.0000e+00
			0.4		7.1809e+00		1.0000e+00
			0.45		7.1816e+00		1.0000e+00
			0.5		7.1819e+00		1.0000e+00
			0.55		7.1822e+00		1.0000e+00
			0.6		7.1825e+00		1.0000e+00
			0.65		7.1828e+00		1.0000e+00
			0.7		7.1832e+00		1.0000e+00
			0.75		7.1836e+00		1.0000e+00
			0.8		7.1841e+00		1.0000e+00
			0.85		7.1845e+00		1.0000e+00
			0.9		7.1856e+00		1.0000e+00
			0.95		7.1868e+00		1.0000e+00
			1.0		7.1879e+00		1.0000e+00
			1.05		7.1891e+00		1.0000e+00
			1.1		7.1893e+00		1.0000e+00
			1.15		7.1894e+00		1.0000e+00
			1.2		7.1896e+00		1.0000e+00
			1.25		7.1898e+00		1.0000e+00
			1.3		7.1898e+00		1.0000e+00
			1.35		7.1897e+00		1.0000e+00
			1.4		7.1897e+00		1.0000e+00
			1.45		7.1897e+00		1.0000e+00
			1.5		7.1895e+00		1.0000e+00
			1.55		7.1894e+00		1.0000e+00
			1.6		7.1892e+00		1.0000e+00
			1.65		7.1890e+00		1.0000e+00
			1.7		7.1889e+00		1.0000e+00
			1.75		7.1888e+00		1.0000e+00
			1.8		7.1887e+00		1.0000e+00
			1.85		7.1886e+00		1.0000e+00
			1.9		7.1885e+00		1.0000e+00
			1.95		7.1885e+00		1.0000e+00
			2.0		7.1885e+00		1.0000e+00
			2.05		7.1884e+00		1.0000e+00
			2.1		7.1889e+00		1.0000e+00
			2.15		7.1894e+00		1.0000e+00
			2.2		7.1899e+00		1.0000e+00
			2.25		7.1904e+00		1.0000e+00
			2.3		7.1910e+00		1.0000e+00
			2.35		7.1915e+00		1.0000e+00
			2.4		7.1921e+00		1.0000e+00
			2.45		7.1926e+00		1.0000e+00
			2.5		7.1929e+00		1.0000e+00
			2.55		7.1933e+00		1.0000e+00
			2.6		7.1936e+00		1.0000e+00
			2.65		7.1939e+00		1.0000e+00
			2.7		7.1942e+00		1.0000e+00
			2.75		7.1945e+00		1.0000e+00
			2.8		7.1948e+00		1.0000e+00
			2.85		7.1951e+00		1.0000e+00
			2.9		7.1946e+00		1.0000e+00
			2.95		7.1942e+00		1.0000e+00
			3.0		7.1937e+00		1.0000e+00
			3.05		7.1933e+00		1.0000e+00
			3.1		7.1934e+00		1.0000e+00
			3.15		7.1936e+00		1.0000e+00
			3.2		7.1937e+00		1.0000e+00
			3.25		7.1939e+00		1.0000e+00
			3.3		7.1922e+00		1.0000e+00
			3.35		7.1906e+00		1.0000e+00
			3.4		7.1889e+00		1.0000e+00
			3.45		7.1873e+00		1.0000e+00
			3.5		7.1863e+00		1.0000e+00
			3.55		7.1852e+00		1.0000e+00
			3.6		7.1842e+00		1.0000e+00
			3.65		7.1832e+00		1.0000e+00
			3.7		7.1807e+00		1.0000e+00
			3.75		7.1781e+00		1.0000e+00
			3.8		7.1755e+00		1.0000e+00
			3.85		7.1729e+00		1.0000e+00
			3.9		7.1718e+00		1.0000e+00
			3.95		7.1707e+00		1.0000e+00
			4.0		7.1695e+00		1.0000e+00
			4.05		7.1684e+00		1.0000e+00
			4.1		7.1656e+00		1.0000e+00
			4.15		7.1628e+00		1.0000e+00
			4.2		7.1600e+00		1.0000e+00
			4.25		7.1572e+00		1.0000e+00
			4.3		7.1562e+00		1.0000e+00
			4.35		7.1551e+00		1.0000e+00
			4.4		7.1541e+00		1.0000e+00
			4.45		7.1531e+00		1.0000e+00
			4.5		7.1548e+00		1.0000e+00
			4.55		7.1565e+00		1.0000e+00
			4.6		7.1582e+00		1.0000e+00
			4.65		7.1599e+00		1.0000e+00
			4.7		7.1745e+00		1.0000e+00
			4.75		7.1891e+00		1.0000e+00
			4.8		7.2038e+00		1.0000e+00
			4.85		7.2184e+00		1.0000e+00
			4.9		7.2841e+00		1.0000e+00
			4.95		7.3499e+00		1.0000e+00
			5.0		7.4156e+00		1.0000e+00
			5.05		7.4814e+00		1.0000e+00
			5.1		7.6665e+00		1.0000e+00
			5.15		7.8517e+00		1.0000e+00
			5.2		8.0368e+00		1.0000e+00
			5.25		8.2219e+00		1.0000e+00
			5.3		8.2082e+00		1.0000e+00
			5.35		8.1945e+00		1.0000e+00
			5.4		8.1807e+00		1.0000e+00
			5.45		8.1670e+00		1.0000e+00
			5.5		7.9728e+00		1.0000e+00
			5.55		7.7786e+00		1.0000e+00
			5.6		7.5844e+00		1.0000e+00
			5.65		7.3902e+00		1.0000e+00
			5.7		7.3232e+00		1.0000e+00
			5.75		7.2562e+00		1.0000e+00
			5.8		7.1892e+00		1.0000e+00
			5.85		7.1221e+00		1.0000e+00
			5.9		7.1020e+00		1.0000e+00
			5.95		7.0818e+00		1.0000e+00
			6.0		7.0616e+00		1.0000e+00
			6.05		7.0415e+00		1.0000e+00
			6.1		7.0311e+00		1.0000e+00
			6.15		7.0208e+00		1.0000e+00
			6.2		7.0105e+00		1.0000e+00
			6.25		7.0002e+00		1.0000e+00
			6.3		6.9912e+00		1.0000e+00
			6.35		6.9821e+00		1.0000e+00
			6.4		6.9731e+00		1.0000e+00
			6.45		6.9640e+00		1.0000e+00
			6.5		6.9568e+00		1.0000e+00
			6.55		6.9495e+00		1.0000e+00
			6.6		6.9422e+00		1.0000e+00
			6.65		6.9349e+00		1.0000e+00
			6.7		6.9279e+00		1.0000e+00
			6.75		6.9209e+00		1.0000e+00
			6.8		6.9139e+00		1.0000e+00
			6.85		6.9069e+00		1.0000e+00
			6.9		6.9001e+00		1.0000e+00
			6.95		6.8932e+00		1.0000e+00
			7.0		6.8864e+00		1.0000e+00
			7.05		6.8795e+00		1.0000e+00
			7.1		6.8721e+00		1.0000e+00
			7.15		6.8647e+00		1.0000e+00
			7.2		6.8573e+00		1.0000e+00
			7.25		6.8498e+00		1.0000e+00
			7.3		6.8413e+00		1.0000e+00
			7.35		6.8327e+00		1.0000e+00
			7.4		6.8242e+00		1.0000e+00
			7.45		6.8156e+00		1.0000e+00
			7.5		6.8086e+00		1.0000e+00
			7.55		6.8016e+00		1.0000e+00
			7.6		6.7946e+00		1.0000e+00
			7.65		6.7876e+00		1.0000e+00
			7.7		6.7807e+00		1.0000e+00
			7.75		6.7738e+00		1.0000e+00
			7.8		6.7669e+00		1.0000e+00
			7.85		6.7599e+00		1.0000e+00
			7.9		6.7537e+00		1.0000e+00
			7.95		6.7474e+00		1.0000e+00
			8.0		6.7412e+00		1.0000e+00
			8.05		6.7349e+00		1.0000e+00
			8.1		6.7282e+00		1.0000e+00
			8.15		6.7215e+00		1.0000e+00
			8.2		6.7148e+00		1.0000e+00
			8.25		6.7080e+00		1.0000e+00
			8.3		6.7014e+00		1.0000e+00
			8.35		6.6947e+00		1.0000e+00
			8.4		6.6880e+00		1.0000e+00
			8.45		6.6814e+00		1.0000e+00
			8.5		6.6743e+00		1.0000e+00
			8.55		6.6671e+00		1.0000e+00
			8.6		6.6600e+00		1.0000e+00
			8.65		6.6529e+00		1.0000e+00
			8.7		6.6446e+00		1.0000e+00
			8.75		6.6362e+00		1.0000e+00
			8.8		6.6279e+00		1.0000e+00
			8.85		6.6195e+00		1.0000e+00
			8.9		6.6105e+00		1.0000e+00
			8.95		6.6014e+00		1.0000e+00
			9.0		6.5924e+00		1.0000e+00
			9.05		6.5834e+00		1.0000e+00
			9.1		6.5741e+00		1.0000e+00
			9.15		6.5649e+00		1.0000e+00
			9.2		6.5556e+00		1.0000e+00
			9.25		6.5464e+00		1.0000e+00
			9.3		6.5366e+00		1.0000e+00
			9.35		6.5268e+00		1.0000e+00
			9.4		6.5170e+00		1.0000e+00
			9.45		6.5072e+00		1.0000e+00
			9.5		6.4974e+00		1.0000e+00
			9.55		6.4875e+00		1.0000e+00
			9.6		6.4777e+00		1.0000e+00
			9.65		6.4678e+00		1.0000e+00
			9.7		6.4571e+00		1.0000e+00
			9.75		6.4463e+00		1.0000e+00
			9.8		6.4355e+00		1.0000e+00
			9.85		6.4248e+00		1.0000e+00
			9.9		6.4150e+00		1.0000e+00
			9.95		6.4052e+00		1.0000e+00
			10.0		6.3954e+00		1.0000e+00
			10.05		6.3856e+00		1.0000e+00
			10.1		6.3759e+00		1.0000e+00
			10.15		6.3663e+00		1.0000e+00
			10.2		6.3566e+00		1.0000e+00
			10.25		6.3470e+00		1.0000e+00
			10.3		6.3362e+00		1.0000e+00
			10.35		6.3254e+00		1.0000e+00
			10.4		6.3146e+00		1.0000e+00
			10.45		6.3038e+00		1.0000e+00
			10.5		6.2932e+00		1.0000e+00
			10.55		6.2826e+00		1.0000e+00
			10.6		6.2720e+00		1.0000e+00
			10.65		6.2614e+00		1.0000e+00
			10.7		6.2509e+00		1.0000e+00
			10.75		6.2405e+00		1.0000e+00
			10.8		6.2300e+00		1.0000e+00
			10.85		6.2196e+00		1.0000e+00
			10.9		6.2087e+00		1.0000e+00
			10.95		6.1978e+00		1.0000e+00
			11.0		6.1869e+00		1.0000e+00
			11.05		6.1760e+00		1.0000e+00
			11.1		6.1629e+00		1.0000e+00
			11.15		6.1499e+00		1.0000e+00
			11.2		6.1368e+00		1.0000e+00
			11.25		6.1238e+00		1.0000e+00
			11.3		6.1094e+00		1.0000e+00
			11.35		6.0951e+00		1.0000e+00
			11.4		6.0807e+00		1.0000e+00
			11.45		6.0664e+00		1.0000e+00
			11.5		6.0535e+00		1.0000e+00
			11.55		6.0406e+00		1.0000e+00
			11.6		6.0277e+00		1.0000e+00
			11.65		6.0148e+00		1.0000e+00
			11.7		6.0004e+00		1.0000e+00
			11.75		5.9860e+00		1.0000e+00
			11.8		5.9717e+00		1.0000e+00
			11.85		5.9573e+00		1.0000e+00
			11.9		5.9434e+00		1.0000e+00
			11.95		5.9295e+00		1.0000e+00
			12.0		5.9156e+00		1.0000e+00
			12.05		5.9017e+00		1.0000e+00
			12.1		5.8866e+00		1.0000e+00
			12.15		5.8716e+00		1.0000e+00
			12.2		5.8565e+00		1.0000e+00
			12.25		5.8415e+00		1.0000e+00
			12.3		5.8253e+00		1.0000e+00
			12.35		5.8091e+00		1.0000e+00
			12.4		5.7929e+00		1.0000e+00
			12.45		5.7767e+00		1.0000e+00
			12.5		5.7565e+00		1.0000e+00
			12.55		5.7362e+00		1.0000e+00
			12.6		5.7160e+00		1.0000e+00
			12.65		5.6958e+00		1.0000e+00
			12.7		5.6660e+00		1.0000e+00
			12.75		5.6361e+00		1.0000e+00
			12.8		5.6063e+00		1.0000e+00
			12.85		5.5764e+00		1.0000e+00
			12.9		5.5187e+00		1.0000e+00
			12.95		5.4610e+00		1.0000e+00
			13.0		5.4032e+00		1.0000e+00
			13.05		5.3455e+00		1.0000e+00
			13.1		5.2128e+00		1.0000e+00
			13.15		5.0802e+00		1.0000e+00
			13.2		4.9475e+00		1.0000e+00
			13.25		4.8148e+00		1.0000e+00
			13.3		4.5170e+00		1.0000e+00
			13.35		4.2191e+00		1.0000e+00
			13.4		3.9213e+00		1.0000e+00
			13.45		3.6234e+00		1.0000e+00
			13.5		3.2850e+00		1.0000e+00
			13.55		2.9465e+00		1.0000e+00
			13.6		2.6081e+00		1.0000e+00
			13.65		2.2697e+00		1.0000e+00
			13.7		2.1197e+00		1.0000e+00
			13.75		1.9698e+00		1.0000e+00
			13.8		1.8198e+00		1.0000e+00
			13.85		1.6698e+00		1.0000e+00
			13.9		1.6445e+00		1.0000e+00
			13.95		1.6192e+00		1.0000e+00
