BEGIN_SCAN_DATA
	FORMAT=CC-Export V1.9                  
	FILE_CREATION_DATE=
	LAST_MODIFIED=11-Jan-2023 11:56:56
	BEGIN_SCAN  1
		TASK_NAME=RayStation Phantom Profiles & PDDs
		PROGRAM=RayStation
		COMMENT=RayStation Script Export
		MEAS_DATE=11-Jan-2023 11:56:56
		LINAC=RayStation
		MODALITY=X
		ISOCENTER=1000.00
		INPLANE_AXIS=Y
		CROSSPLANE_AXIS=X
		DEPTH_AXIS=Z
		INPLANE_AXIS_DIR=GUN_TARGET
		CROSSPLANE_AXIS_DIR=LEFT_RIGHT
		DEPTH_AXIS_DIR=UP_DOWN
		ENERGY=6.3
		NOMINAL_DMAX=20.00
		SSD=1000.0
		SCD=1000.00
		WEDGE_ANGLE=0.00
		FIELD_INPLANE=200.0
		FIELD_CROSSPLANE=200.0
		FIELD_TYPE=IRREGULAR
		GANTRY=0.00
		GANTRY_UPRIGHT_POSITION=0
		GANTRY_ROTATION=CW
		COLL_ANGLE=0.00
		REF_FIELD_DEPTH=50.00
		REF_FIELD_DEFINED=ISOCENTER
		FIELD_INPLANE=200.0
		FIELD_CROSSPLANE=200.0
		SCAN_CURVETYPE=INPLANE_PROFILE
		SCAN_DEPTH=20.0
		SCAN_OFFAXIS_INPLANE=0.00
		SCAN_OFFAXIS_CROSSPLANE=0.00
		SCAN_ANGLE=0.00
		SCAN_DIAGONAL=NOT_DIAGONAL
		SCAN_DIRECTION=NEGATIVE
		MEAS_MEDIUM=WATER
		MEAS_UNIT=cGy
		INCLINATION_ANGLE=0.00
		PRESSURE=1013.20
		TEMPERATURE=20.00
		NORM_TEMPERATURE=20.00
		CORRECTION_FACTOR=1.0000;
		BEGIN_DATA
			-5.0		0.0000e+00		1.0000e+00
			-4.95		0.0000e+00		1.0000e+00
			-4.9		0.0000e+00		1.0000e+00
			-4.85		0.0000e+00		1.0000e+00
			-4.8		0.0000e+00		1.0000e+00
			-4.75		0.0000e+00		1.0000e+00
			-4.7		0.0000e+00		1.0000e+00
			-4.65		0.0000e+00		1.0000e+00
			-4.6		0.0000e+00		1.0000e+00
			-4.55		0.0000e+00		1.0000e+00
			-4.5		0.0000e+00		1.0000e+00
			-4.45		0.0000e+00		1.0000e+00
			-4.4		0.0000e+00		1.0000e+00
			-4.35		0.0000e+00		1.0000e+00
			-4.3		0.0000e+00		1.0000e+00
			-4.25		0.0000e+00		1.0000e+00
			-4.2		0.0000e+00		1.0000e+00
			-4.15		0.0000e+00		1.0000e+00
			-4.1		0.0000e+00		1.0000e+00
			-4.05		0.0000e+00		1.0000e+00
			-4.0		0.0000e+00		1.0000e+00
			-3.95		0.0000e+00		1.0000e+00
			-3.9		0.0000e+00		1.0000e+00
			-3.85		0.0000e+00		1.0000e+00
			-3.8		0.0000e+00		1.0000e+00
			-3.75		3.2393e-06		1.0000e+00
			-3.7		6.4787e-06		1.0000e+00
			-3.65		9.7180e-06		1.0000e+00
			-3.6		1.2957e-05		1.0000e+00
			-3.55		2.3013e-03		1.0000e+00
			-3.5		4.5896e-03		1.0000e+00
			-3.45		6.8778e-03		1.0000e+00
			-3.4		9.1661e-03		1.0000e+00
			-3.35		9.8396e-03		1.0000e+00
			-3.3		1.0513e-02		1.0000e+00
			-3.25		1.1186e-02		1.0000e+00
			-3.2		1.1860e-02		1.0000e+00
			-3.15		1.2033e-02		1.0000e+00
			-3.1		1.2207e-02		1.0000e+00
			-3.05		1.2380e-02		1.0000e+00
			-3.0		1.2554e-02		1.0000e+00
			-2.95		1.2736e-02		1.0000e+00
			-2.9		1.2917e-02		1.0000e+00
			-2.85		1.3099e-02		1.0000e+00
			-2.8		1.3281e-02		1.0000e+00
			-2.75		1.3399e-02		1.0000e+00
			-2.7		1.3516e-02		1.0000e+00
			-2.65		1.3634e-02		1.0000e+00
			-2.6		1.3752e-02		1.0000e+00
			-2.55		1.3965e-02		1.0000e+00
			-2.5		1.4178e-02		1.0000e+00
			-2.45		1.4390e-02		1.0000e+00
			-2.4		1.4603e-02		1.0000e+00
			-2.35		1.4792e-02		1.0000e+00
			-2.3		1.4981e-02		1.0000e+00
			-2.25		1.5169e-02		1.0000e+00
			-2.2		1.5358e-02		1.0000e+00
			-2.15		1.5497e-02		1.0000e+00
			-2.1		1.5636e-02		1.0000e+00
			-2.05		1.5775e-02		1.0000e+00
			-2.0		1.5915e-02		1.0000e+00
			-1.95		1.6161e-02		1.0000e+00
			-1.9		1.6408e-02		1.0000e+00
			-1.85		1.6655e-02		1.0000e+00
			-1.8		1.6901e-02		1.0000e+00
			-1.75		1.7101e-02		1.0000e+00
			-1.7		1.7300e-02		1.0000e+00
			-1.65		1.7499e-02		1.0000e+00
			-1.6		1.7698e-02		1.0000e+00
			-1.55		1.7861e-02		1.0000e+00
			-1.5		1.8023e-02		1.0000e+00
			-1.45		1.8186e-02		1.0000e+00
			-1.4		1.8348e-02		1.0000e+00
			-1.35		1.8642e-02		1.0000e+00
			-1.3		1.8935e-02		1.0000e+00
			-1.25		1.9228e-02		1.0000e+00
			-1.2		1.9521e-02		1.0000e+00
			-1.15		1.9730e-02		1.0000e+00
			-1.1		1.9938e-02		1.0000e+00
			-1.05		2.0147e-02		1.0000e+00
			-1.0		2.0355e-02		1.0000e+00
			-0.95		2.0545e-02		1.0000e+00
			-0.9		2.0735e-02		1.0000e+00
			-0.85		2.0925e-02		1.0000e+00
			-0.8		2.1115e-02		1.0000e+00
			-0.75		2.1452e-02		1.0000e+00
			-0.7		2.1789e-02		1.0000e+00
			-0.65		2.2127e-02		1.0000e+00
			-0.6		2.2464e-02		1.0000e+00
			-0.55		2.2683e-02		1.0000e+00
			-0.5		2.2903e-02		1.0000e+00
			-0.45		2.3122e-02		1.0000e+00
			-0.4		2.3342e-02		1.0000e+00
			-0.35		2.3573e-02		1.0000e+00
			-0.3		2.3803e-02		1.0000e+00
			-0.25		2.4034e-02		1.0000e+00
			-0.2		2.4265e-02		1.0000e+00
			-0.15		2.4645e-02		1.0000e+00
			-0.1		2.5026e-02		1.0000e+00
			-0.05		2.5407e-02		1.0000e+00
			-0.0		2.5788e-02		1.0000e+00
			0.05		2.6029e-02		1.0000e+00
			0.1		2.6270e-02		1.0000e+00
			0.15		2.6511e-02		1.0000e+00
			0.2		2.6752e-02		1.0000e+00
			0.25		2.7035e-02		1.0000e+00
			0.3		2.7317e-02		1.0000e+00
			0.35		2.7600e-02		1.0000e+00
			0.4		2.7883e-02		1.0000e+00
			0.45		2.8326e-02		1.0000e+00
			0.5		2.8770e-02		1.0000e+00
			0.55		2.9214e-02		1.0000e+00
			0.6		2.9658e-02		1.0000e+00
			0.65		2.9927e-02		1.0000e+00
			0.7		3.0196e-02		1.0000e+00
			0.75		3.0465e-02		1.0000e+00
			0.8		3.0734e-02		1.0000e+00
			0.85		3.1092e-02		1.0000e+00
			0.9		3.1451e-02		1.0000e+00
			0.95		3.1810e-02		1.0000e+00
			1.0		3.2169e-02		1.0000e+00
			1.05		3.2690e-02		1.0000e+00
			1.1		3.3211e-02		1.0000e+00
			1.15		3.3732e-02		1.0000e+00
			1.2		3.4252e-02		1.0000e+00
			1.25		3.4555e-02		1.0000e+00
			1.3		3.4857e-02		1.0000e+00
			1.35		3.5159e-02		1.0000e+00
			1.4		3.5461e-02		1.0000e+00
			1.45		3.5941e-02		1.0000e+00
			1.5		3.6421e-02		1.0000e+00
			1.55		3.6901e-02		1.0000e+00
			1.6		3.7381e-02		1.0000e+00
			1.65		3.7976e-02		1.0000e+00
			1.7		3.8571e-02		1.0000e+00
			1.75		3.9166e-02		1.0000e+00
			1.8		3.9761e-02		1.0000e+00
			1.85		4.0147e-02		1.0000e+00
			1.9		4.0532e-02		1.0000e+00
			1.95		4.0917e-02		1.0000e+00
			2.0		4.1303e-02		1.0000e+00
			2.05		4.1960e-02		1.0000e+00
			2.1		4.2618e-02		1.0000e+00
			2.15		4.3275e-02		1.0000e+00
			2.2		4.3933e-02		1.0000e+00
			2.25		4.4659e-02		1.0000e+00
			2.3		4.5386e-02		1.0000e+00
			2.35		4.6112e-02		1.0000e+00
			2.4		4.6839e-02		1.0000e+00
			2.45		4.7337e-02		1.0000e+00
			2.5		4.7834e-02		1.0000e+00
			2.55		4.8332e-02		1.0000e+00
			2.6		4.8829e-02		1.0000e+00
			2.65		4.9771e-02		1.0000e+00
			2.7		5.0712e-02		1.0000e+00
			2.75		5.1653e-02		1.0000e+00
			2.8		5.2594e-02		1.0000e+00
			2.85		5.3512e-02		1.0000e+00
			2.9		5.4430e-02		1.0000e+00
			2.95		5.5347e-02		1.0000e+00
			3.0		5.6265e-02		1.0000e+00
			3.05		5.6924e-02		1.0000e+00
			3.1		5.7583e-02		1.0000e+00
			3.15		5.8241e-02		1.0000e+00
			3.2		5.8900e-02		1.0000e+00
			3.25		6.0272e-02		1.0000e+00
			3.3		6.1644e-02		1.0000e+00
			3.35		6.3016e-02		1.0000e+00
			3.4		6.4388e-02		1.0000e+00
			3.45		6.5517e-02		1.0000e+00
			3.5		6.6645e-02		1.0000e+00
			3.55		6.7774e-02		1.0000e+00
			3.6		6.8902e-02		1.0000e+00
			3.65		1.1124e-01		1.0000e+00
			3.7		1.5358e-01		1.0000e+00
			3.75		1.9592e-01		1.0000e+00
			3.8		2.3827e-01		1.0000e+00
			3.85		2.6016e-01		1.0000e+00
			3.9		2.8206e-01		1.0000e+00
			3.95		3.0396e-01		1.0000e+00
			4.0		3.2586e-01		1.0000e+00
			4.05		3.4777e-01		1.0000e+00
			4.1		3.6968e-01		1.0000e+00
			4.15		3.9160e-01		1.0000e+00
			4.2		4.1351e-01		1.0000e+00
			4.25		4.1641e-01		1.0000e+00
			4.3		4.1931e-01		1.0000e+00
			4.35		4.2221e-01		1.0000e+00
			4.4		4.2512e-01		1.0000e+00
			4.45		4.2803e-01		1.0000e+00
			4.5		4.3095e-01		1.0000e+00
			4.55		4.3387e-01		1.0000e+00
			4.6		4.3679e-01		1.0000e+00
			4.65		4.3970e-01		1.0000e+00
			4.7		4.4261e-01		1.0000e+00
			4.75		4.4552e-01		1.0000e+00
			4.8		4.4843e-01		1.0000e+00
			4.85		4.5134e-01		1.0000e+00
			4.9		4.5425e-01		1.0000e+00
			4.95		4.5716e-01		1.0000e+00
			5.0		4.6007e-01		1.0000e+00
			5.05		4.6339e-01		1.0000e+00
			5.1		4.6672e-01		1.0000e+00
			5.15		4.7004e-01		1.0000e+00
			5.2		4.7337e-01		1.0000e+00
			5.25		4.7665e-01		1.0000e+00
			5.3		4.7994e-01		1.0000e+00
			5.35		4.8323e-01		1.0000e+00
			5.4		4.8651e-01		1.0000e+00
			5.45		4.8984e-01		1.0000e+00
			5.5		4.9316e-01		1.0000e+00
			5.55		4.9649e-01		1.0000e+00
			5.6		4.9982e-01		1.0000e+00
			5.65		5.0316e-01		1.0000e+00
			5.7		5.0650e-01		1.0000e+00
			5.75		5.0984e-01		1.0000e+00
			5.8		5.1319e-01		1.0000e+00
			5.85		5.1704e-01		1.0000e+00
			5.9		5.2090e-01		1.0000e+00
			5.95		5.2476e-01		1.0000e+00
			6.0		5.2862e-01		1.0000e+00
			6.05		5.3258e-01		1.0000e+00
			6.1		5.3654e-01		1.0000e+00
			6.15		5.4050e-01		1.0000e+00
			6.2		5.4445e-01		1.0000e+00
			6.25		5.4842e-01		1.0000e+00
			6.3		5.5238e-01		1.0000e+00
			6.35		5.5634e-01		1.0000e+00
			6.4		5.6030e-01		1.0000e+00
			6.45		5.6420e-01		1.0000e+00
			6.5		5.6810e-01		1.0000e+00
			6.55		5.7200e-01		1.0000e+00
			6.6		5.7590e-01		1.0000e+00
			6.65		5.8103e-01		1.0000e+00
			6.7		5.8617e-01		1.0000e+00
			6.75		5.9130e-01		1.0000e+00
			6.8		5.9644e-01		1.0000e+00
			6.85		6.0161e-01		1.0000e+00
			6.9		6.0679e-01		1.0000e+00
			6.95		6.1197e-01		1.0000e+00
			7.0		6.1714e-01		1.0000e+00
			7.05		6.2218e-01		1.0000e+00
			7.1		6.2723e-01		1.0000e+00
			7.15		6.3227e-01		1.0000e+00
			7.2		6.3731e-01		1.0000e+00
			7.25		6.4254e-01		1.0000e+00
			7.3		6.4776e-01		1.0000e+00
			7.35		6.5299e-01		1.0000e+00
			7.4		6.5822e-01		1.0000e+00
			7.45		6.6530e-01		1.0000e+00
			7.5		6.7239e-01		1.0000e+00
			7.55		6.7948e-01		1.0000e+00
			7.6		6.8656e-01		1.0000e+00
			7.65		6.9353e-01		1.0000e+00
			7.7		7.0050e-01		1.0000e+00
			7.75		7.0746e-01		1.0000e+00
			7.8		7.1443e-01		1.0000e+00
			7.85		7.2159e-01		1.0000e+00
			7.9		7.2875e-01		1.0000e+00
			7.95		7.3591e-01		1.0000e+00
			8.0		7.4307e-01		1.0000e+00
			8.05		7.5024e-01		1.0000e+00
			8.1		7.5741e-01		1.0000e+00
			8.15		7.6458e-01		1.0000e+00
			8.2		7.7174e-01		1.0000e+00
			8.25		7.9142e-01		1.0000e+00
			8.3		8.1109e-01		1.0000e+00
			8.35		8.3076e-01		1.0000e+00
			8.4		8.5044e-01		1.0000e+00
			8.45		8.7027e-01		1.0000e+00
			8.5		8.9010e-01		1.0000e+00
			8.55		9.0993e-01		1.0000e+00
			8.6		9.2976e-01		1.0000e+00
			8.65		9.4968e-01		1.0000e+00
			8.7		9.6960e-01		1.0000e+00
			8.75		9.8951e-01		1.0000e+00
			8.8		1.0094e+00		1.0000e+00
			8.85		1.0291e+00		1.0000e+00
			8.9		1.0488e+00		1.0000e+00
			8.95		1.0685e+00		1.0000e+00
			9.0		1.0882e+00		1.0000e+00
			9.05		1.1066e+00		1.0000e+00
			9.1		1.1250e+00		1.0000e+00
			9.15		1.1434e+00		1.0000e+00
			9.2		1.1619e+00		1.0000e+00
			9.25		1.1800e+00		1.0000e+00
			9.3		1.1982e+00		1.0000e+00
			9.35		1.2164e+00		1.0000e+00
			9.4		1.2346e+00		1.0000e+00
			9.45		1.2529e+00		1.0000e+00
			9.5		1.2712e+00		1.0000e+00
			9.55		1.2895e+00		1.0000e+00
			9.6		1.3078e+00		1.0000e+00
			9.65		1.3262e+00		1.0000e+00
			9.7		1.3447e+00		1.0000e+00
			9.75		1.3632e+00		1.0000e+00
			9.8		1.3816e+00		1.0000e+00
			9.85		1.4007e+00		1.0000e+00
			9.9		1.4198e+00		1.0000e+00
			9.95		1.4388e+00		1.0000e+00
			10.0		1.4579e+00		1.0000e+00
			10.05		1.4771e+00		1.0000e+00
			10.1		1.4963e+00		1.0000e+00
			10.15		1.5154e+00		1.0000e+00
			10.2		1.5346e+00		1.0000e+00
			10.25		1.5539e+00		1.0000e+00
			10.3		1.5732e+00		1.0000e+00
			10.35		1.5924e+00		1.0000e+00
			10.4		1.6117e+00		1.0000e+00
			10.45		1.6307e+00		1.0000e+00
			10.5		1.6497e+00		1.0000e+00
			10.55		1.6687e+00		1.0000e+00
			10.6		1.6877e+00		1.0000e+00
			10.65		1.7108e+00		1.0000e+00
			10.7		1.7339e+00		1.0000e+00
			10.75		1.7571e+00		1.0000e+00
			10.8		1.7802e+00		1.0000e+00
			10.85		1.8035e+00		1.0000e+00
			10.9		1.8268e+00		1.0000e+00
			10.95		1.8502e+00		1.0000e+00
			11.0		1.8735e+00		1.0000e+00
			11.05		1.8962e+00		1.0000e+00
			11.1		1.9190e+00		1.0000e+00
			11.15		1.9418e+00		1.0000e+00
			11.2		1.9646e+00		1.0000e+00
			11.25		1.9877e+00		1.0000e+00
			11.3		2.0109e+00		1.0000e+00
			11.35		2.0341e+00		1.0000e+00
			11.4		2.0573e+00		1.0000e+00
			11.45		2.0832e+00		1.0000e+00
			11.5		2.1090e+00		1.0000e+00
			11.55		2.1348e+00		1.0000e+00
			11.6		2.1607e+00		1.0000e+00
			11.65		2.1862e+00		1.0000e+00
			11.7		2.2117e+00		1.0000e+00
			11.75		2.2372e+00		1.0000e+00
			11.8		2.2627e+00		1.0000e+00
			11.85		2.2886e+00		1.0000e+00
			11.9		2.3145e+00		1.0000e+00
			11.95		2.3403e+00		1.0000e+00
			12.0		2.3662e+00		1.0000e+00
			12.05		2.3921e+00		1.0000e+00
			12.1		2.4180e+00		1.0000e+00
			12.15		2.4439e+00		1.0000e+00
			12.2		2.4698e+00		1.0000e+00
			12.25		2.5009e+00		1.0000e+00
			12.3		2.5320e+00		1.0000e+00
			12.35		2.5630e+00		1.0000e+00
			12.4		2.5941e+00		1.0000e+00
			12.45		2.6256e+00		1.0000e+00
			12.5		2.6572e+00		1.0000e+00
			12.55		2.6887e+00		1.0000e+00
			12.6		2.7203e+00		1.0000e+00
			12.65		2.7521e+00		1.0000e+00
			12.7		2.7839e+00		1.0000e+00
			12.75		2.8157e+00		1.0000e+00
			12.8		2.8475e+00		1.0000e+00
			12.85		2.8785e+00		1.0000e+00
			12.9		2.9096e+00		1.0000e+00
			12.95		2.9406e+00		1.0000e+00
			13.0		2.9716e+00		1.0000e+00
			13.05		3.0133e+00		1.0000e+00
			13.1		3.0550e+00		1.0000e+00
			13.15		3.0967e+00		1.0000e+00
			13.2		3.1384e+00		1.0000e+00
			13.25		3.1803e+00		1.0000e+00
			13.3		3.2221e+00		1.0000e+00
			13.35		3.2639e+00		1.0000e+00
			13.4		3.3058e+00		1.0000e+00
			13.45		3.3462e+00		1.0000e+00
			13.5		3.3867e+00		1.0000e+00
			13.55		3.4272e+00		1.0000e+00
			13.6		3.4676e+00		1.0000e+00
			13.65		3.5083e+00		1.0000e+00
			13.7		3.5490e+00		1.0000e+00
			13.75		3.5897e+00		1.0000e+00
			13.8		3.6304e+00		1.0000e+00
			13.85		3.7200e+00		1.0000e+00
			13.9		3.8096e+00		1.0000e+00
			13.95		3.8993e+00		1.0000e+00
			14.0		3.9889e+00		1.0000e+00
			14.05		4.0783e+00		1.0000e+00
			14.1		4.1678e+00		1.0000e+00
			14.15		4.2572e+00		1.0000e+00
			14.2		4.3467e+00		1.0000e+00
			14.25		4.5971e+00		1.0000e+00
			14.3		4.8475e+00		1.0000e+00
			14.35		5.0980e+00		1.0000e+00
			14.4		5.3484e+00		1.0000e+00
			14.45		6.1474e+00		1.0000e+00
			14.5		6.9464e+00		1.0000e+00
			14.55		7.7453e+00		1.0000e+00
			14.6		8.5443e+00		1.0000e+00
			14.65		1.3668e+01		1.0000e+00
			14.7		1.8792e+01		1.0000e+00
			14.75		2.3916e+01		1.0000e+00
			14.8		2.9040e+01		1.0000e+00
			14.85		3.6512e+01		1.0000e+00
			14.9		4.3983e+01		1.0000e+00
			14.95		5.1455e+01		1.0000e+00
			15.0		5.8927e+01		1.0000e+00
			15.05		5.8476e+01		1.0000e+00
			15.1		5.8024e+01		1.0000e+00
			15.15		5.7573e+01		1.0000e+00
			15.2		5.7121e+01		1.0000e+00
			15.25		4.8518e+01		1.0000e+00
			15.3		3.9915e+01		1.0000e+00
			15.35		3.1311e+01		1.0000e+00
			15.4		2.2708e+01		1.0000e+00
			15.45		2.0646e+01		1.0000e+00
			15.5		1.8583e+01		1.0000e+00
			15.55		1.6520e+01		1.0000e+00
			15.6		1.4458e+01		1.0000e+00
			15.65		1.8520e+01		1.0000e+00
			15.7		2.2581e+01		1.0000e+00
			15.75		2.6643e+01		1.0000e+00
			15.8		3.0705e+01		1.0000e+00
			15.85		3.8243e+01		1.0000e+00
			15.9		4.5780e+01		1.0000e+00
			15.95		5.3317e+01		1.0000e+00
			16.0		6.0854e+01		1.0000e+00
			16.05		6.0489e+01		1.0000e+00
			16.1		6.0123e+01		1.0000e+00
			16.15		5.9757e+01		1.0000e+00
			16.2		5.9392e+01		1.0000e+00
			16.25		5.1195e+01		1.0000e+00
			16.3		4.2999e+01		1.0000e+00
			16.35		3.4802e+01		1.0000e+00
			16.4		2.6606e+01		1.0000e+00
			16.45		2.3760e+01		1.0000e+00
			16.5		2.0915e+01		1.0000e+00
			16.55		1.8069e+01		1.0000e+00
			16.6		1.5224e+01		1.0000e+00
			16.65		1.8432e+01		1.0000e+00
			16.7		2.1641e+01		1.0000e+00
			16.75		2.4850e+01		1.0000e+00
			16.8		2.8059e+01		1.0000e+00
			16.85		3.5938e+01		1.0000e+00
			16.9		4.3818e+01		1.0000e+00
			16.95		5.1697e+01		1.0000e+00
			17.0		5.9576e+01		1.0000e+00
			17.05		5.9839e+01		1.0000e+00
			17.1		6.0101e+01		1.0000e+00
			17.15		6.0363e+01		1.0000e+00
			17.2		6.0625e+01		1.0000e+00
			17.25		5.2947e+01		1.0000e+00
			17.3		4.5269e+01		1.0000e+00
			17.35		3.7591e+01		1.0000e+00
			17.4		2.9913e+01		1.0000e+00
			17.45		2.6296e+01		1.0000e+00
			17.5		2.2678e+01		1.0000e+00
			17.55		1.9060e+01		1.0000e+00
			17.6		1.5443e+01		1.0000e+00
			17.65		1.7850e+01		1.0000e+00
			17.7		2.0257e+01		1.0000e+00
			17.75		2.2664e+01		1.0000e+00
			17.8		2.5071e+01		1.0000e+00
			17.85		3.3365e+01		1.0000e+00
			17.9		4.1659e+01		1.0000e+00
			17.95		4.9953e+01		1.0000e+00
			18.0		5.8247e+01		1.0000e+00
			18.05		5.9144e+01		1.0000e+00
			18.1		6.0041e+01		1.0000e+00
			18.15		6.0938e+01		1.0000e+00
			18.2		6.1834e+01		1.0000e+00
			18.25		5.4683e+01		1.0000e+00
			18.3		4.7531e+01		1.0000e+00
			18.35		4.0379e+01		1.0000e+00
			18.4		3.3228e+01		1.0000e+00
			18.45		2.8892e+01		1.0000e+00
			18.5		2.4555e+01		1.0000e+00
			18.55		2.0219e+01		1.0000e+00
			18.6		1.5883e+01		1.0000e+00
			18.65		1.7506e+01		1.0000e+00
			18.7		1.9128e+01		1.0000e+00
			18.75		2.0750e+01		1.0000e+00
			18.8		2.2372e+01		1.0000e+00
			18.85		3.1007e+01		1.0000e+00
			18.9		3.9641e+01		1.0000e+00
			18.95		4.8275e+01		1.0000e+00
			19.0		5.6910e+01		1.0000e+00
			19.05		5.8388e+01		1.0000e+00
			19.1		5.9867e+01		1.0000e+00
			19.15		6.1345e+01		1.0000e+00
			19.2		6.2823e+01		1.0000e+00
			19.25		5.6217e+01		1.0000e+00
			19.3		4.9610e+01		1.0000e+00
			19.35		4.3004e+01		1.0000e+00
			19.4		3.6397e+01		1.0000e+00
			19.45		3.1352e+01		1.0000e+00
			19.5		2.6306e+01		1.0000e+00
			19.55		2.1261e+01		1.0000e+00
			19.6		1.6215e+01		1.0000e+00
			19.65		1.7148e+01		1.0000e+00
			19.7		1.8081e+01		1.0000e+00
			19.75		1.9014e+01		1.0000e+00
			19.8		1.9947e+01		1.0000e+00
			19.85		2.8615e+01		1.0000e+00
			19.9		3.7282e+01		1.0000e+00
			19.95		4.5950e+01		1.0000e+00
			20.0		5.4618e+01		1.0000e+00
			20.05		5.6770e+01		1.0000e+00
			20.1		5.8923e+01		1.0000e+00
			20.15		6.1076e+01		1.0000e+00
			20.2		6.3228e+01		1.0000e+00
			20.25		5.7423e+01		1.0000e+00
			20.3		5.1618e+01		1.0000e+00
			20.35		4.5814e+01		1.0000e+00
			20.4		4.0009e+01		1.0000e+00
			20.45		3.4283e+01		1.0000e+00
			20.5		2.8558e+01		1.0000e+00
			20.55		2.2832e+01		1.0000e+00
			20.6		1.7107e+01		1.0000e+00
			20.65		1.7621e+01		1.0000e+00
			20.7		1.8134e+01		1.0000e+00
			20.75		1.8648e+01		1.0000e+00
			20.8		1.9162e+01		1.0000e+00
			20.85		2.7148e+01		1.0000e+00
			20.9		3.5134e+01		1.0000e+00
			20.95		4.3120e+01		1.0000e+00
			21.0		5.1107e+01		1.0000e+00
			21.05		5.4083e+01		1.0000e+00
			21.1		5.7059e+01		1.0000e+00
			21.15		6.0036e+01		1.0000e+00
			21.2		6.3012e+01		1.0000e+00
			21.25		5.8111e+01		1.0000e+00
			21.3		5.3209e+01		1.0000e+00
			21.35		4.8308e+01		1.0000e+00
			21.4		4.3407e+01		1.0000e+00
			21.45		3.7013e+01		1.0000e+00
			21.5		3.0619e+01		1.0000e+00
			21.55		2.4225e+01		1.0000e+00
			21.6		1.7831e+01		1.0000e+00
			21.65		1.7967e+01		1.0000e+00
			21.7		1.8104e+01		1.0000e+00
			21.75		1.8240e+01		1.0000e+00
			21.8		1.8376e+01		1.0000e+00
			21.85		2.5644e+01		1.0000e+00
			21.9		3.2911e+01		1.0000e+00
			21.95		4.0178e+01		1.0000e+00
			22.0		4.7446e+01		1.0000e+00
			22.05		5.1294e+01		1.0000e+00
			22.1		5.5142e+01		1.0000e+00
			22.15		5.8990e+01		1.0000e+00
			22.2		6.2838e+01		1.0000e+00
			22.25		5.8853e+01		1.0000e+00
			22.3		5.4868e+01		1.0000e+00
			22.35		5.0883e+01		1.0000e+00
			22.4		4.6898e+01		1.0000e+00
			22.45		3.9847e+01		1.0000e+00
			22.5		3.2797e+01		1.0000e+00
			22.55		2.5746e+01		1.0000e+00
			22.6		1.8696e+01		1.0000e+00
			22.65		1.8467e+01		1.0000e+00
			22.7		1.8238e+01		1.0000e+00
			22.75		1.8009e+01		1.0000e+00
			22.8		1.7779e+01		1.0000e+00
			22.85		2.4285e+01		1.0000e+00
			22.9		3.0791e+01		1.0000e+00
			22.95		3.7297e+01		1.0000e+00
			23.0		4.3803e+01		1.0000e+00
			23.05		4.8498e+01		1.0000e+00
			23.1		5.3193e+01		1.0000e+00
			23.15		5.7888e+01		1.0000e+00
			23.2		6.2584e+01		1.0000e+00
			23.25		5.9463e+01		1.0000e+00
			23.3		5.6343e+01		1.0000e+00
			23.35		5.3222e+01		1.0000e+00
			23.4		5.0102e+01		1.0000e+00
			23.45		4.2411e+01		1.0000e+00
			23.5		3.4719e+01		1.0000e+00
			23.55		2.7028e+01		1.0000e+00
			23.6		1.9337e+01		1.0000e+00
			23.65		1.8750e+01		1.0000e+00
			23.7		1.8163e+01		1.0000e+00
			23.75		1.7576e+01		1.0000e+00
			23.8		1.6989e+01		1.0000e+00
			23.85		2.2771e+01		1.0000e+00
			23.9		2.8553e+01		1.0000e+00
			23.95		3.4335e+01		1.0000e+00
			24.0		4.0116e+01		1.0000e+00
			24.05		4.5649e+01		1.0000e+00
			24.1		5.1182e+01		1.0000e+00
			24.15		5.6715e+01		1.0000e+00
			24.2		6.2248e+01		1.0000e+00
			24.25		6.0020e+01		1.0000e+00
			24.3		5.7791e+01		1.0000e+00
			24.35		5.5562e+01		1.0000e+00
			24.4		5.3333e+01		1.0000e+00
			24.45		4.5029e+01		1.0000e+00
			24.5		3.6725e+01		1.0000e+00
			24.55		2.8422e+01		1.0000e+00
			24.6		2.0118e+01		1.0000e+00
			24.65		1.9159e+01		1.0000e+00
			24.7		1.8200e+01		1.0000e+00
			24.75		1.7242e+01		1.0000e+00
			24.8		1.6283e+01		1.0000e+00
			24.85		2.1315e+01		1.0000e+00
			24.9		2.6347e+01		1.0000e+00
			24.95		3.1379e+01		1.0000e+00
			25.0		3.6411e+01		1.0000e+00
			25.05		4.2728e+01		1.0000e+00
			25.1		4.9044e+01		1.0000e+00
			25.15		5.5361e+01		1.0000e+00
			25.2		6.1677e+01		1.0000e+00
			25.25		6.0205e+01		1.0000e+00
			25.3		5.8733e+01		1.0000e+00
			25.35		5.7260e+01		1.0000e+00
			25.4		5.5788e+01		1.0000e+00
			25.45		4.7359e+01		1.0000e+00
			25.5		3.8930e+01		1.0000e+00
			25.55		3.0501e+01		1.0000e+00
			25.6		2.2072e+01		1.0000e+00
			25.65		2.0574e+01		1.0000e+00
			25.7		1.9075e+01		1.0000e+00
			25.75		1.7577e+01		1.0000e+00
			25.8		1.6078e+01		1.0000e+00
			25.85		2.0439e+01		1.0000e+00
			25.9		2.4799e+01		1.0000e+00
			25.95		2.9160e+01		1.0000e+00
			26.0		3.3520e+01		1.0000e+00
			26.05		4.0360e+01		1.0000e+00
			26.1		4.7200e+01		1.0000e+00
			26.15		5.4040e+01		1.0000e+00
			26.2		6.0880e+01		1.0000e+00
			26.25		6.0012e+01		1.0000e+00
			26.3		5.9143e+01		1.0000e+00
			26.35		5.8275e+01		1.0000e+00
			26.4		5.7406e+01		1.0000e+00
			26.45		4.9338e+01		1.0000e+00
			26.5		4.1270e+01		1.0000e+00
			26.55		3.3202e+01		1.0000e+00
			26.6		2.5134e+01		1.0000e+00
			26.65		2.2879e+01		1.0000e+00
			26.7		2.0624e+01		1.0000e+00
			26.75		1.8369e+01		1.0000e+00
			26.8		1.6113e+01		1.0000e+00
			26.85		1.9751e+01		1.0000e+00
			26.9		2.3390e+01		1.0000e+00
			26.95		2.7028e+01		1.0000e+00
			27.0		3.0666e+01		1.0000e+00
			27.05		3.7985e+01		1.0000e+00
			27.1		4.5304e+01		1.0000e+00
			27.15		5.2623e+01		1.0000e+00
			27.2		5.9941e+01		1.0000e+00
			27.25		5.9649e+01		1.0000e+00
			27.3		5.9357e+01		1.0000e+00
			27.35		5.9065e+01		1.0000e+00
			27.4		5.8773e+01		1.0000e+00
			27.45		5.1098e+01		1.0000e+00
			27.5		4.3423e+01		1.0000e+00
			27.55		3.5748e+01		1.0000e+00
			27.6		2.8073e+01		1.0000e+00
			27.65		2.5067e+01		1.0000e+00
			27.7		2.2061e+01		1.0000e+00
			27.75		1.9055e+01		1.0000e+00
			27.8		1.6049e+01		1.0000e+00
			27.85		1.8974e+01		1.0000e+00
			27.9		2.1898e+01		1.0000e+00
			27.95		2.4823e+01		1.0000e+00
			28.0		2.7747e+01		1.0000e+00
			28.05		3.5575e+01		1.0000e+00
			28.1		4.3402e+01		1.0000e+00
			28.15		5.1230e+01		1.0000e+00
			28.2		5.9057e+01		1.0000e+00
			28.25		5.9369e+01		1.0000e+00
			28.3		5.9681e+01		1.0000e+00
			28.35		5.9993e+01		1.0000e+00
			28.4		6.0306e+01		1.0000e+00
			28.45		5.3015e+01		1.0000e+00
			28.5		4.5725e+01		1.0000e+00
			28.55		3.8435e+01		1.0000e+00
			28.6		3.1145e+01		1.0000e+00
			28.65		2.7357e+01		1.0000e+00
			28.7		2.3569e+01		1.0000e+00
			28.75		1.9781e+01		1.0000e+00
			28.8		1.5993e+01		1.0000e+00
			28.85		1.8168e+01		1.0000e+00
			28.9		2.0343e+01		1.0000e+00
			28.95		2.2519e+01		1.0000e+00
			29.0		2.4694e+01		1.0000e+00
			29.05		3.2990e+01		1.0000e+00
			29.1		4.1285e+01		1.0000e+00
			29.15		4.9580e+01		1.0000e+00
			29.2		5.7876e+01		1.0000e+00
			29.25		5.8812e+01		1.0000e+00
			29.3		5.9749e+01		1.0000e+00
			29.35		6.0685e+01		1.0000e+00
			29.4		6.1622e+01		1.0000e+00
			29.45		5.4733e+01		1.0000e+00
			29.5		4.7845e+01		1.0000e+00
			29.55		4.0957e+01		1.0000e+00
			29.6		3.4069e+01		1.0000e+00
			29.65		2.9516e+01		1.0000e+00
			29.7		2.4964e+01		1.0000e+00
			29.75		2.0412e+01		1.0000e+00
			29.8		1.5859e+01		1.0000e+00
			29.85		1.7335e+01		1.0000e+00
			29.9		1.8811e+01		1.0000e+00
			29.95		2.0287e+01		1.0000e+00
			30.0		2.1762e+01		1.0000e+00
			30.05		3.0468e+01		1.0000e+00
			30.1		3.9174e+01		1.0000e+00
			30.15		4.7881e+01		1.0000e+00
			30.2		5.6587e+01		1.0000e+00
			30.25		5.8159e+01		1.0000e+00
			30.3		5.9731e+01		1.0000e+00
			30.35		6.1303e+01		1.0000e+00
			30.4		6.2875e+01		1.0000e+00
			30.45		5.6520e+01		1.0000e+00
			30.5		5.0165e+01		1.0000e+00
			30.55		4.3810e+01		1.0000e+00
			30.6		3.7456e+01		1.0000e+00
			30.65		3.2089e+01		1.0000e+00
			30.7		2.6722e+01		1.0000e+00
			30.75		2.1355e+01		1.0000e+00
			30.8		1.5988e+01		1.0000e+00
			30.85		1.6990e+01		1.0000e+00
			30.9		1.7992e+01		1.0000e+00
			30.95		1.8994e+01		1.0000e+00
			31.0		1.9996e+01		1.0000e+00
			31.05		2.8383e+01		1.0000e+00
			31.1		3.6770e+01		1.0000e+00
			31.15		4.5156e+01		1.0000e+00
			31.2		5.3543e+01		1.0000e+00
			31.25		5.5955e+01		1.0000e+00
			31.3		5.8366e+01		1.0000e+00
			31.35		6.0778e+01		1.0000e+00
			31.4		6.3190e+01		1.0000e+00
			31.45		5.7624e+01		1.0000e+00
			31.5		5.2059e+01		1.0000e+00
			31.55		4.6494e+01		1.0000e+00
			31.6		4.0928e+01		1.0000e+00
			31.65		3.4793e+01		1.0000e+00
			31.7		2.8658e+01		1.0000e+00
			31.75		2.2522e+01		1.0000e+00
			31.8		1.6387e+01		1.0000e+00
			31.85		1.7031e+01		1.0000e+00
			31.9		1.7674e+01		1.0000e+00
			31.95		1.8318e+01		1.0000e+00
			32.0		1.8962e+01		1.0000e+00
			32.05		2.6760e+01		1.0000e+00
			32.1		3.4557e+01		1.0000e+00
			32.15		4.2355e+01		1.0000e+00
			32.2		5.0153e+01		1.0000e+00
			32.25		5.3462e+01		1.0000e+00
			32.3		5.6771e+01		1.0000e+00
			32.35		6.0079e+01		1.0000e+00
			32.4		6.3388e+01		1.0000e+00
			32.45		5.8683e+01		1.0000e+00
			32.5		5.3978e+01		1.0000e+00
			32.55		4.9273e+01		1.0000e+00
			32.6		4.4568e+01		1.0000e+00
			32.65		3.7634e+01		1.0000e+00
			32.7		3.0700e+01		1.0000e+00
			32.75		2.3766e+01		1.0000e+00
			32.8		1.6832e+01		1.0000e+00
			32.85		1.7081e+01		1.0000e+00
			32.9		1.7331e+01		1.0000e+00
			32.95		1.7580e+01		1.0000e+00
			33.0		1.7830e+01		1.0000e+00
			33.05		2.4937e+01		1.0000e+00
			33.1		3.2044e+01		1.0000e+00
			33.15		3.9151e+01		1.0000e+00
			33.2		4.6258e+01		1.0000e+00
			33.25		5.0513e+01		1.0000e+00
			33.3		5.4768e+01		1.0000e+00
			33.35		5.9022e+01		1.0000e+00
			33.4		6.3277e+01		1.0000e+00
			33.45		5.9450e+01		1.0000e+00
			33.5		5.5624e+01		1.0000e+00
			33.55		5.1797e+01		1.0000e+00
			33.6		4.7970e+01		1.0000e+00
			33.65		4.0255e+01		1.0000e+00
			33.7		3.2540e+01		1.0000e+00
			33.75		2.4825e+01		1.0000e+00
			33.8		1.7110e+01		1.0000e+00
			33.85		1.6983e+01		1.0000e+00
			33.9		1.6855e+01		1.0000e+00
			33.95		1.6727e+01		1.0000e+00
			34.0		1.6600e+01		1.0000e+00
			34.05		2.3017e+01		1.0000e+00
			34.1		2.9434e+01		1.0000e+00
			34.15		3.5851e+01		1.0000e+00
			34.2		4.2268e+01		1.0000e+00
			34.25		4.7439e+01		1.0000e+00
			34.3		5.2609e+01		1.0000e+00
			34.35		5.7780e+01		1.0000e+00
			34.4		6.2951e+01		1.0000e+00
			34.45		5.9816e+01		1.0000e+00
			34.5		5.6680e+01		1.0000e+00
			34.55		5.3544e+01		1.0000e+00
			34.6		5.0409e+01		1.0000e+00
			34.65		4.1462e+01		1.0000e+00
			34.7		3.2515e+01		1.0000e+00
			34.75		2.3568e+01		1.0000e+00
			34.8		1.4621e+01		1.0000e+00
			34.85		1.2783e+01		1.0000e+00
			34.9		1.0944e+01		1.0000e+00
			34.95		9.1051e+00		1.0000e+00
			35.0		7.2663e+00		1.0000e+00
			35.05		6.7430e+00		1.0000e+00
			35.1		6.2196e+00		1.0000e+00
			35.15		5.6963e+00		1.0000e+00
			35.2		5.1729e+00		1.0000e+00
			35.25		4.9229e+00		1.0000e+00
			35.3		4.6728e+00		1.0000e+00
			35.35		4.4227e+00		1.0000e+00
			35.4		4.1727e+00		1.0000e+00
			35.45		4.1105e+00		1.0000e+00
			35.5		4.0483e+00		1.0000e+00
			35.55		3.9860e+00		1.0000e+00
			35.6		3.9238e+00		1.0000e+00
			35.65		3.8615e+00		1.0000e+00
			35.7		3.7991e+00		1.0000e+00
			35.75		3.7368e+00		1.0000e+00
			35.8		3.6745e+00		1.0000e+00
			35.85		3.6123e+00		1.0000e+00
			35.9		3.5501e+00		1.0000e+00
			35.95		3.4880e+00		1.0000e+00
			36.0		3.4258e+00		1.0000e+00
			36.05		3.3635e+00		1.0000e+00
			36.1		3.3011e+00		1.0000e+00
			36.15		3.2387e+00		1.0000e+00
			36.2		3.1764e+00		1.0000e+00
			36.25		3.1412e+00		1.0000e+00
			36.3		3.1060e+00		1.0000e+00
			36.35		3.0708e+00		1.0000e+00
			36.4		3.0356e+00		1.0000e+00
			36.45		3.0010e+00		1.0000e+00
			36.5		2.9663e+00		1.0000e+00
			36.55		2.9316e+00		1.0000e+00
			36.6		2.8970e+00		1.0000e+00
			36.65		2.8616e+00		1.0000e+00
			36.7		2.8262e+00		1.0000e+00
			36.75		2.7908e+00		1.0000e+00
			36.8		2.7554e+00		1.0000e+00
			36.85		2.7203e+00		1.0000e+00
			36.9		2.6851e+00		1.0000e+00
			36.95		2.6500e+00		1.0000e+00
			37.0		2.6148e+00		1.0000e+00
			37.05		2.5879e+00		1.0000e+00
			37.1		2.5611e+00		1.0000e+00
			37.15		2.5342e+00		1.0000e+00
			37.2		2.5073e+00		1.0000e+00
			37.25		2.4800e+00		1.0000e+00
			37.3		2.4528e+00		1.0000e+00
			37.35		2.4255e+00		1.0000e+00
			37.4		2.3982e+00		1.0000e+00
			37.45		2.3710e+00		1.0000e+00
			37.5		2.3438e+00		1.0000e+00
			37.55		2.3166e+00		1.0000e+00
			37.6		2.2894e+00		1.0000e+00
			37.65		2.2625e+00		1.0000e+00
			37.7		2.2355e+00		1.0000e+00
			37.75		2.2086e+00		1.0000e+00
			37.8		2.1816e+00		1.0000e+00
			37.85		2.1573e+00		1.0000e+00
			37.9		2.1329e+00		1.0000e+00
			37.95		2.1085e+00		1.0000e+00
			38.0		2.0841e+00		1.0000e+00
			38.05		2.0598e+00		1.0000e+00
			38.1		2.0355e+00		1.0000e+00
			38.15		2.0112e+00		1.0000e+00
			38.2		1.9869e+00		1.0000e+00
			38.25		1.9630e+00		1.0000e+00
			38.3		1.9392e+00		1.0000e+00
			38.35		1.9153e+00		1.0000e+00
			38.4		1.8915e+00		1.0000e+00
			38.45		1.8670e+00		1.0000e+00
			38.5		1.8426e+00		1.0000e+00
			38.55		1.8182e+00		1.0000e+00
			38.6		1.7937e+00		1.0000e+00
			38.65		1.7731e+00		1.0000e+00
			38.7		1.7526e+00		1.0000e+00
			38.75		1.7320e+00		1.0000e+00
			38.8		1.7114e+00		1.0000e+00
			38.85		1.6911e+00		1.0000e+00
			38.9		1.6708e+00		1.0000e+00
			38.95		1.6506e+00		1.0000e+00
			39.0		1.6303e+00		1.0000e+00
			39.05		1.6098e+00		1.0000e+00
			39.1		1.5893e+00		1.0000e+00
			39.15		1.5688e+00		1.0000e+00
			39.2		1.5482e+00		1.0000e+00
			39.25		1.5277e+00		1.0000e+00
			39.3		1.5072e+00		1.0000e+00
			39.35		1.4867e+00		1.0000e+00
			39.4		1.4662e+00		1.0000e+00
			39.45		1.4494e+00		1.0000e+00
			39.5		1.4325e+00		1.0000e+00
			39.55		1.4157e+00		1.0000e+00
			39.6		1.3988e+00		1.0000e+00
			39.65		1.3818e+00		1.0000e+00
