BEGIN_SCAN_DATA
	FORMAT=CC-Export V1.9                  
	FILE_CREATION_DATE=
	LAST_MODIFIED=11-Jan-2023 11:56:56
	BEGIN_SCAN  1
		TASK_NAME=RayStation Phantom Profiles & PDDs
		PROGRAM=RayStation
		COMMENT=RayStation Script Export
		MEAS_DATE=11-Jan-2023 11:56:56
		LINAC=RayStation
		MODALITY=X
		ISOCENTER=1000.00
		INPLANE_AXIS=Y
		CROSSPLANE_AXIS=X
		DEPTH_AXIS=Z
		INPLANE_AXIS_DIR=GUN_TARGET
		CROSSPLANE_AXIS_DIR=LEFT_RIGHT
		DEPTH_AXIS_DIR=UP_DOWN
		ENERGY=6.3
		NOMINAL_DMAX=20.00
		SSD=1000.0
		SCD=1000.00
		WEDGE_ANGLE=0.00
		FIELD_INPLANE=200.0
		FIELD_CROSSPLANE=200.0
		FIELD_TYPE=IRREGULAR
		GANTRY=0.00
		GANTRY_UPRIGHT_POSITION=0
		GANTRY_ROTATION=CW
		COLL_ANGLE=0.00
		REF_FIELD_DEPTH=50.00
		REF_FIELD_DEFINED=ISOCENTER
		FIELD_INPLANE=200.0
		FIELD_CROSSPLANE=200.0
		SCAN_CURVETYPE=CROSSPLANE_PROFILE
		SCAN_DEPTH=100.0
		SCAN_OFFAXIS_INPLANE=0.00
		SCAN_OFFAXIS_CROSSPLANE=0.00
		SCAN_ANGLE=0.00
		SCAN_DIAGONAL=NOT_DIAGONAL
		SCAN_DIRECTION=NEGATIVE
		MEAS_MEDIUM=WATER
		MEAS_UNIT=cGy
		INCLINATION_ANGLE=0.00
		PRESSURE=1013.20
		TEMPERATURE=20.00
		NORM_TEMPERATURE=20.00
		CORRECTION_FACTOR=1.0000;
		BEGIN_DATA
			-30.05		1.7053e-04		1.0000e+00
			-30.0		2.5579e-04		1.0000e+00
			-29.95		3.4105e-04		1.0000e+00
			-29.9		3.4754e-04		1.0000e+00
			-29.85		3.5404e-04		1.0000e+00
			-29.8		3.6054e-04		1.0000e+00
			-29.75		3.6703e-04		1.0000e+00
			-29.7		3.7361e-04		1.0000e+00
			-29.65		3.8018e-04		1.0000e+00
			-29.6		3.8676e-04		1.0000e+00
			-29.55		3.9334e-04		1.0000e+00
			-29.5		4.0486e-04		1.0000e+00
			-29.45		4.1638e-04		1.0000e+00
			-29.4		4.2790e-04		1.0000e+00
			-29.35		4.3942e-04		1.0000e+00
			-29.3		4.4570e-04		1.0000e+00
			-29.25		4.5198e-04		1.0000e+00
			-29.2		4.5826e-04		1.0000e+00
			-29.15		4.6453e-04		1.0000e+00
			-29.1		4.7782e-04		1.0000e+00
			-29.05		4.9111e-04		1.0000e+00
			-29.0		5.0440e-04		1.0000e+00
			-28.95		5.1769e-04		1.0000e+00
			-28.9		5.2922e-04		1.0000e+00
			-28.85		5.4075e-04		1.0000e+00
			-28.8		5.5228e-04		1.0000e+00
			-28.75		5.6381e-04		1.0000e+00
			-28.7		5.8174e-04		1.0000e+00
			-28.65		5.9966e-04		1.0000e+00
			-28.6		6.1759e-04		1.0000e+00
			-28.55		6.3552e-04		1.0000e+00
			-28.5		6.7086e-04		1.0000e+00
			-28.45		7.0619e-04		1.0000e+00
			-28.4		7.4153e-04		1.0000e+00
			-28.35		7.7686e-04		1.0000e+00
			-28.3		8.0330e-04		1.0000e+00
			-28.25		8.2974e-04		1.0000e+00
			-28.2		8.5618e-04		1.0000e+00
			-28.15		8.8262e-04		1.0000e+00
			-28.1		9.1963e-04		1.0000e+00
			-28.05		9.5664e-04		1.0000e+00
			-28.0		9.9366e-04		1.0000e+00
			-27.95		1.0307e-03		1.0000e+00
			-27.9		1.0669e-03		1.0000e+00
			-27.85		1.1031e-03		1.0000e+00
			-27.8		1.1393e-03		1.0000e+00
			-27.75		1.1755e-03		1.0000e+00
			-27.7		1.2082e-03		1.0000e+00
			-27.65		1.2410e-03		1.0000e+00
			-27.6		1.2737e-03		1.0000e+00
			-27.55		1.3064e-03		1.0000e+00
			-27.5		1.3639e-03		1.0000e+00
			-27.45		1.4213e-03		1.0000e+00
			-27.4		1.4787e-03		1.0000e+00
			-27.35		1.5361e-03		1.0000e+00
			-27.3		1.5789e-03		1.0000e+00
			-27.25		1.6217e-03		1.0000e+00
			-27.2		1.6645e-03		1.0000e+00
			-27.15		1.7073e-03		1.0000e+00
			-27.1		1.7655e-03		1.0000e+00
			-27.05		1.8237e-03		1.0000e+00
			-27.0		1.8819e-03		1.0000e+00
			-26.95		1.9401e-03		1.0000e+00
			-26.9		2.0027e-03		1.0000e+00
			-26.85		2.0654e-03		1.0000e+00
			-26.8		2.1280e-03		1.0000e+00
			-26.75		2.1906e-03		1.0000e+00
			-26.7		2.2405e-03		1.0000e+00
			-26.65		2.2904e-03		1.0000e+00
			-26.6		2.3402e-03		1.0000e+00
			-26.55		2.3901e-03		1.0000e+00
			-26.5		2.4656e-03		1.0000e+00
			-26.45		2.5411e-03		1.0000e+00
			-26.4		2.6165e-03		1.0000e+00
			-26.35		2.6920e-03		1.0000e+00
			-26.3		2.7310e-03		1.0000e+00
			-26.25		2.7700e-03		1.0000e+00
			-26.2		2.8089e-03		1.0000e+00
			-26.15		2.8479e-03		1.0000e+00
			-26.1		2.9076e-03		1.0000e+00
			-26.05		2.9674e-03		1.0000e+00
			-26.0		3.0272e-03		1.0000e+00
			-25.95		3.0869e-03		1.0000e+00
			-25.9		3.1650e-03		1.0000e+00
			-25.85		3.2431e-03		1.0000e+00
			-25.8		3.3212e-03		1.0000e+00
			-25.75		3.3993e-03		1.0000e+00
			-25.7		3.4462e-03		1.0000e+00
			-25.65		3.4931e-03		1.0000e+00
			-25.6		3.5401e-03		1.0000e+00
			-25.55		3.5870e-03		1.0000e+00
			-25.5		3.7066e-03		1.0000e+00
			-25.45		3.8261e-03		1.0000e+00
			-25.4		3.9457e-03		1.0000e+00
			-25.35		4.0652e-03		1.0000e+00
			-25.3		4.1385e-03		1.0000e+00
			-25.25		4.2117e-03		1.0000e+00
			-25.2		4.2849e-03		1.0000e+00
			-25.15		4.3581e-03		1.0000e+00
			-25.1		4.4597e-03		1.0000e+00
			-25.05		4.5612e-03		1.0000e+00
			-25.0		4.6628e-03		1.0000e+00
			-24.95		4.7643e-03		1.0000e+00
			-24.9		4.9205e-03		1.0000e+00
			-24.85		5.0766e-03		1.0000e+00
			-24.8		5.2327e-03		1.0000e+00
			-24.75		5.3888e-03		1.0000e+00
			-24.7		5.4736e-03		1.0000e+00
			-24.65		5.5583e-03		1.0000e+00
			-24.6		5.6431e-03		1.0000e+00
			-24.55		5.7278e-03		1.0000e+00
			-24.5		5.9511e-03		1.0000e+00
			-24.45		6.1744e-03		1.0000e+00
			-24.4		6.3976e-03		1.0000e+00
			-24.35		6.6209e-03		1.0000e+00
			-24.3		6.7734e-03		1.0000e+00
			-24.25		6.9259e-03		1.0000e+00
			-24.2		7.0784e-03		1.0000e+00
			-24.15		7.2309e-03		1.0000e+00
			-24.1		7.4115e-03		1.0000e+00
			-24.05		7.5920e-03		1.0000e+00
			-24.0		7.7726e-03		1.0000e+00
			-23.95		7.9532e-03		1.0000e+00
			-23.9		8.2765e-03		1.0000e+00
			-23.85		8.5999e-03		1.0000e+00
			-23.8		8.9233e-03		1.0000e+00
			-23.75		9.2466e-03		1.0000e+00
			-23.7		9.4120e-03		1.0000e+00
			-23.65		9.5773e-03		1.0000e+00
			-23.6		9.7426e-03		1.0000e+00
			-23.55		9.9080e-03		1.0000e+00
			-23.5		1.0332e-02		1.0000e+00
			-23.45		1.0756e-02		1.0000e+00
			-23.4		1.1180e-02		1.0000e+00
			-23.35		1.1605e-02		1.0000e+00
			-23.3		1.1928e-02		1.0000e+00
			-23.25		1.2251e-02		1.0000e+00
			-23.2		1.2575e-02		1.0000e+00
			-23.15		1.2898e-02		1.0000e+00
			-23.1		1.3223e-02		1.0000e+00
			-23.05		1.3548e-02		1.0000e+00
			-23.0		1.3873e-02		1.0000e+00
			-22.95		1.4198e-02		1.0000e+00
			-22.9		1.4857e-02		1.0000e+00
			-22.85		1.5515e-02		1.0000e+00
			-22.8		1.6174e-02		1.0000e+00
			-22.75		1.6832e-02		1.0000e+00
			-22.7		1.7157e-02		1.0000e+00
			-22.65		1.7482e-02		1.0000e+00
			-22.6		1.7808e-02		1.0000e+00
			-22.55		1.8133e-02		1.0000e+00
			-22.5		1.8910e-02		1.0000e+00
			-22.45		1.9688e-02		1.0000e+00
			-22.4		2.0465e-02		1.0000e+00
			-22.35		2.1243e-02		1.0000e+00
			-22.3		2.1912e-02		1.0000e+00
			-22.25		2.2581e-02		1.0000e+00
			-22.2		2.3251e-02		1.0000e+00
			-22.15		2.3920e-02		1.0000e+00
			-22.1		2.4487e-02		1.0000e+00
			-22.05		2.5053e-02		1.0000e+00
			-22.0		2.5620e-02		1.0000e+00
			-21.95		2.6186e-02		1.0000e+00
			-21.9		2.7462e-02		1.0000e+00
			-21.85		2.8738e-02		1.0000e+00
			-21.8		3.0014e-02		1.0000e+00
			-21.75		3.1290e-02		1.0000e+00
			-21.7		3.1908e-02		1.0000e+00
			-21.65		3.2527e-02		1.0000e+00
			-21.6		3.3146e-02		1.0000e+00
			-21.55		3.3764e-02		1.0000e+00
			-21.5		3.5110e-02		1.0000e+00
			-21.45		3.6456e-02		1.0000e+00
			-21.4		3.7802e-02		1.0000e+00
			-21.35		3.9149e-02		1.0000e+00
			-21.3		4.0461e-02		1.0000e+00
			-21.25		4.1773e-02		1.0000e+00
			-21.2		4.3085e-02		1.0000e+00
			-21.15		4.4398e-02		1.0000e+00
			-21.1		4.5343e-02		1.0000e+00
			-21.05		4.6289e-02		1.0000e+00
			-21.0		4.7235e-02		1.0000e+00
			-20.95		4.8180e-02		1.0000e+00
			-20.9		5.0535e-02		1.0000e+00
			-20.85		5.2890e-02		1.0000e+00
			-20.8		5.5244e-02		1.0000e+00
			-20.75		5.7606e-02		1.0000e+00
			-20.7		1.3413e-01		1.0000e+00
			-20.65		2.1065e-01		1.0000e+00
			-20.6		2.8718e-01		1.0000e+00
			-20.55		3.6369e-01		1.0000e+00
			-20.5		3.7450e-01		1.0000e+00
			-20.45		3.8531e-01		1.0000e+00
			-20.4		3.9612e-01		1.0000e+00
			-20.35		4.0693e-01		1.0000e+00
			-20.3		4.1775e-01		1.0000e+00
			-20.25		4.2857e-01		1.0000e+00
			-20.2		4.3939e-01		1.0000e+00
			-20.15		4.5021e-01		1.0000e+00
			-20.1		4.6104e-01		1.0000e+00
			-20.05		4.7188e-01		1.0000e+00
			-20.0		4.8271e-01		1.0000e+00
			-19.95		4.9354e-01		1.0000e+00
			-19.9		5.0439e-01		1.0000e+00
			-19.85		5.1524e-01		1.0000e+00
			-19.8		5.2609e-01		1.0000e+00
			-19.75		5.3693e-01		1.0000e+00
			-19.7		5.4229e-01		1.0000e+00
			-19.65		5.4766e-01		1.0000e+00
			-19.6		5.5302e-01		1.0000e+00
			-19.55		5.5838e-01		1.0000e+00
			-19.5		5.6374e-01		1.0000e+00
			-19.45		5.6911e-01		1.0000e+00
			-19.4		5.7448e-01		1.0000e+00
			-19.35		5.7985e-01		1.0000e+00
			-19.3		5.8522e-01		1.0000e+00
			-19.25		5.9060e-01		1.0000e+00
			-19.2		5.9597e-01		1.0000e+00
			-19.15		6.0134e-01		1.0000e+00
			-19.1		6.0672e-01		1.0000e+00
			-19.05		6.1210e-01		1.0000e+00
			-19.0		6.1748e-01		1.0000e+00
			-18.95		6.2285e-01		1.0000e+00
			-18.9		6.2936e-01		1.0000e+00
			-18.85		6.3587e-01		1.0000e+00
			-18.8		6.4238e-01		1.0000e+00
			-18.75		6.4888e-01		1.0000e+00
			-18.7		6.5539e-01		1.0000e+00
			-18.65		6.6191e-01		1.0000e+00
			-18.6		6.6842e-01		1.0000e+00
			-18.55		6.7493e-01		1.0000e+00
			-18.5		6.8145e-01		1.0000e+00
			-18.45		6.8797e-01		1.0000e+00
			-18.4		6.9449e-01		1.0000e+00
			-18.35		7.0102e-01		1.0000e+00
			-18.3		7.0754e-01		1.0000e+00
			-18.25		7.1407e-01		1.0000e+00
			-18.2		7.2060e-01		1.0000e+00
			-18.15		7.2712e-01		1.0000e+00
			-18.1		7.3485e-01		1.0000e+00
			-18.05		7.4258e-01		1.0000e+00
			-18.0		7.5030e-01		1.0000e+00
			-17.95		7.5803e-01		1.0000e+00
			-17.9		7.6577e-01		1.0000e+00
			-17.85		7.7350e-01		1.0000e+00
			-17.8		7.8124e-01		1.0000e+00
			-17.75		7.8898e-01		1.0000e+00
			-17.7		7.9672e-01		1.0000e+00
			-17.65		8.0446e-01		1.0000e+00
			-17.6		8.1221e-01		1.0000e+00
			-17.55		8.1995e-01		1.0000e+00
			-17.5		8.2770e-01		1.0000e+00
			-17.45		8.3545e-01		1.0000e+00
			-17.4		8.4320e-01		1.0000e+00
			-17.35		8.5095e-01		1.0000e+00
			-17.3		8.6060e-01		1.0000e+00
			-17.25		8.7025e-01		1.0000e+00
			-17.2		8.7990e-01		1.0000e+00
			-17.15		8.8955e-01		1.0000e+00
			-17.1		8.9921e-01		1.0000e+00
			-17.05		9.0887e-01		1.0000e+00
			-17.0		9.1853e-01		1.0000e+00
			-16.95		9.2818e-01		1.0000e+00
			-16.9		9.3785e-01		1.0000e+00
			-16.85		9.4752e-01		1.0000e+00
			-16.8		9.5719e-01		1.0000e+00
			-16.75		9.6686e-01		1.0000e+00
			-16.7		9.7654e-01		1.0000e+00
			-16.65		9.8621e-01		1.0000e+00
			-16.6		9.9589e-01		1.0000e+00
			-16.55		1.0056e+00		1.0000e+00
			-16.5		1.0183e+00		1.0000e+00
			-16.45		1.0311e+00		1.0000e+00
			-16.4		1.0439e+00		1.0000e+00
			-16.35		1.0567e+00		1.0000e+00
			-16.3		1.0695e+00		1.0000e+00
			-16.25		1.0823e+00		1.0000e+00
			-16.2		1.0951e+00		1.0000e+00
			-16.15		1.1079e+00		1.0000e+00
			-16.1		1.1207e+00		1.0000e+00
			-16.05		1.1335e+00		1.0000e+00
			-16.0		1.1463e+00		1.0000e+00
			-15.95		1.1591e+00		1.0000e+00
			-15.9		1.1719e+00		1.0000e+00
			-15.85		1.1847e+00		1.0000e+00
			-15.8		1.1975e+00		1.0000e+00
			-15.75		1.2103e+00		1.0000e+00
			-15.7		1.2405e+00		1.0000e+00
			-15.65		1.2706e+00		1.0000e+00
			-15.6		1.3007e+00		1.0000e+00
			-15.55		1.3308e+00		1.0000e+00
			-15.5		1.3609e+00		1.0000e+00
			-15.45		1.3911e+00		1.0000e+00
			-15.4		1.4212e+00		1.0000e+00
			-15.35		1.4514e+00		1.0000e+00
			-15.3		1.4815e+00		1.0000e+00
			-15.25		1.5117e+00		1.0000e+00
			-15.2		1.5419e+00		1.0000e+00
			-15.15		1.5721e+00		1.0000e+00
			-15.1		1.6023e+00		1.0000e+00
			-15.05		1.6325e+00		1.0000e+00
			-15.0		1.6627e+00		1.0000e+00
			-14.95		1.6928e+00		1.0000e+00
			-14.9		1.7147e+00		1.0000e+00
			-14.85		1.7366e+00		1.0000e+00
			-14.8		1.7585e+00		1.0000e+00
			-14.75		1.7805e+00		1.0000e+00
			-14.7		1.8024e+00		1.0000e+00
			-14.65		1.8243e+00		1.0000e+00
			-14.6		1.8462e+00		1.0000e+00
			-14.55		1.8681e+00		1.0000e+00
			-14.5		1.8901e+00		1.0000e+00
			-14.45		1.9120e+00		1.0000e+00
			-14.4		1.9339e+00		1.0000e+00
			-14.35		1.9559e+00		1.0000e+00
			-14.3		1.9778e+00		1.0000e+00
			-14.25		1.9998e+00		1.0000e+00
			-14.2		2.0217e+00		1.0000e+00
			-14.15		2.0437e+00		1.0000e+00
			-14.1		2.0703e+00		1.0000e+00
			-14.05		2.0969e+00		1.0000e+00
			-14.0		2.1235e+00		1.0000e+00
			-13.95		2.1501e+00		1.0000e+00
			-13.9		2.1767e+00		1.0000e+00
			-13.85		2.2033e+00		1.0000e+00
			-13.8		2.2299e+00		1.0000e+00
			-13.75		2.2565e+00		1.0000e+00
			-13.7		2.2832e+00		1.0000e+00
			-13.65		2.3098e+00		1.0000e+00
			-13.6		2.3365e+00		1.0000e+00
			-13.55		2.3631e+00		1.0000e+00
			-13.5		2.3898e+00		1.0000e+00
			-13.45		2.4164e+00		1.0000e+00
			-13.4		2.4431e+00		1.0000e+00
			-13.35		2.4697e+00		1.0000e+00
			-13.3		2.5042e+00		1.0000e+00
			-13.25		2.5386e+00		1.0000e+00
			-13.2		2.5730e+00		1.0000e+00
			-13.15		2.6075e+00		1.0000e+00
			-13.1		2.6419e+00		1.0000e+00
			-13.05		2.6764e+00		1.0000e+00
			-13.0		2.7108e+00		1.0000e+00
			-12.95		2.7453e+00		1.0000e+00
			-12.9		2.7798e+00		1.0000e+00
			-12.85		2.8143e+00		1.0000e+00
			-12.8		2.8487e+00		1.0000e+00
			-12.75		2.8832e+00		1.0000e+00
			-12.7		2.9177e+00		1.0000e+00
			-12.65		2.9522e+00		1.0000e+00
			-12.6		2.9868e+00		1.0000e+00
			-12.55		3.0213e+00		1.0000e+00
			-12.5		3.0744e+00		1.0000e+00
			-12.45		3.1276e+00		1.0000e+00
			-12.4		3.1807e+00		1.0000e+00
			-12.35		3.2339e+00		1.0000e+00
			-12.3		3.2871e+00		1.0000e+00
			-12.25		3.3403e+00		1.0000e+00
			-12.2		3.3935e+00		1.0000e+00
			-12.15		3.4467e+00		1.0000e+00
			-12.1		3.4995e+00		1.0000e+00
			-12.05		3.5523e+00		1.0000e+00
			-12.0		3.6050e+00		1.0000e+00
			-11.95		3.6578e+00		1.0000e+00
			-11.9		3.7107e+00		1.0000e+00
			-11.85		3.7635e+00		1.0000e+00
			-11.8		3.8163e+00		1.0000e+00
			-11.75		3.8692e+00		1.0000e+00
			-11.7		4.0578e+00		1.0000e+00
			-11.65		4.2464e+00		1.0000e+00
			-11.6		4.4350e+00		1.0000e+00
			-11.55		4.6237e+00		1.0000e+00
			-11.5		4.8111e+00		1.0000e+00
			-11.45		4.9986e+00		1.0000e+00
			-11.4		5.1860e+00		1.0000e+00
			-11.35		5.3736e+00		1.0000e+00
			-11.3		6.4241e+00		1.0000e+00
			-11.25		7.4746e+00		1.0000e+00
			-11.2		8.5251e+00		1.0000e+00
			-11.15		9.5757e+00		1.0000e+00
			-11.1		1.1589e+01		1.0000e+00
			-11.05		1.3603e+01		1.0000e+00
			-11.0		1.5617e+01		1.0000e+00
			-10.95		1.7630e+01		1.0000e+00
			-10.9		1.8562e+01		1.0000e+00
			-10.85		1.9493e+01		1.0000e+00
			-10.8		2.0425e+01		1.0000e+00
			-10.75		2.1357e+01		1.0000e+00
			-10.7		2.1659e+01		1.0000e+00
			-10.65		2.1962e+01		1.0000e+00
			-10.6		2.2264e+01		1.0000e+00
			-10.55		2.2567e+01		1.0000e+00
			-10.5		2.2702e+01		1.0000e+00
			-10.45		2.2837e+01		1.0000e+00
			-10.4		2.2972e+01		1.0000e+00
			-10.35		2.3108e+01		1.0000e+00
			-10.3		2.3193e+01		1.0000e+00
			-10.25		2.3279e+01		1.0000e+00
			-10.2		2.3365e+01		1.0000e+00
			-10.15		2.3451e+01		1.0000e+00
			-10.1		2.3512e+01		1.0000e+00
			-10.05		2.3574e+01		1.0000e+00
			-10.0		2.3635e+01		1.0000e+00
			-9.95		2.3697e+01		1.0000e+00
			-9.9		2.3750e+01		1.0000e+00
			-9.85		2.3803e+01		1.0000e+00
			-9.8		2.3855e+01		1.0000e+00
			-9.75		2.3908e+01		1.0000e+00
			-9.7		2.3960e+01		1.0000e+00
			-9.65		2.4011e+01		1.0000e+00
			-9.6		2.4063e+01		1.0000e+00
			-9.55		2.4114e+01		1.0000e+00
			-9.5		2.4158e+01		1.0000e+00
			-9.45		2.4202e+01		1.0000e+00
			-9.4		2.4246e+01		1.0000e+00
			-9.35		2.4290e+01		1.0000e+00
			-9.3		2.4332e+01		1.0000e+00
			-9.25		2.4375e+01		1.0000e+00
			-9.2		2.4417e+01		1.0000e+00
			-9.15		2.4459e+01		1.0000e+00
			-9.1		2.4498e+01		1.0000e+00
			-9.05		2.4536e+01		1.0000e+00
			-9.0		2.4574e+01		1.0000e+00
			-8.95		2.4612e+01		1.0000e+00
			-8.9		2.4648e+01		1.0000e+00
			-8.85		2.4685e+01		1.0000e+00
			-8.8		2.4721e+01		1.0000e+00
			-8.75		2.4757e+01		1.0000e+00
			-8.7		2.4786e+01		1.0000e+00
			-8.65		2.4816e+01		1.0000e+00
			-8.6		2.4845e+01		1.0000e+00
			-8.55		2.4874e+01		1.0000e+00
			-8.5		2.4901e+01		1.0000e+00
			-8.45		2.4928e+01		1.0000e+00
			-8.4		2.4955e+01		1.0000e+00
			-8.35		2.4982e+01		1.0000e+00
			-8.3		2.5003e+01		1.0000e+00
			-8.25		2.5025e+01		1.0000e+00
			-8.2		2.5046e+01		1.0000e+00
			-8.15		2.5068e+01		1.0000e+00
			-8.1		2.5090e+01		1.0000e+00
			-8.05		2.5112e+01		1.0000e+00
			-8.0		2.5134e+01		1.0000e+00
			-7.95		2.5156e+01		1.0000e+00
			-7.9		2.5171e+01		1.0000e+00
			-7.85		2.5187e+01		1.0000e+00
			-7.8		2.5202e+01		1.0000e+00
			-7.75		2.5218e+01		1.0000e+00
			-7.7		2.5236e+01		1.0000e+00
			-7.65		2.5255e+01		1.0000e+00
			-7.6		2.5274e+01		1.0000e+00
			-7.55		2.5293e+01		1.0000e+00
			-7.5		2.5310e+01		1.0000e+00
			-7.45		2.5327e+01		1.0000e+00
			-7.4		2.5345e+01		1.0000e+00
			-7.35		2.5362e+01		1.0000e+00
			-7.3		2.5376e+01		1.0000e+00
			-7.25		2.5391e+01		1.0000e+00
			-7.2		2.5405e+01		1.0000e+00
			-7.15		2.5420e+01		1.0000e+00
			-7.1		2.5437e+01		1.0000e+00
			-7.05		2.5455e+01		1.0000e+00
			-7.0		2.5473e+01		1.0000e+00
			-6.95		2.5491e+01		1.0000e+00
			-6.9		2.5505e+01		1.0000e+00
			-6.85		2.5518e+01		1.0000e+00
			-6.8		2.5532e+01		1.0000e+00
			-6.75		2.5545e+01		1.0000e+00
			-6.7		2.5563e+01		1.0000e+00
			-6.65		2.5580e+01		1.0000e+00
			-6.6		2.5598e+01		1.0000e+00
			-6.55		2.5615e+01		1.0000e+00
			-6.5		2.5626e+01		1.0000e+00
			-6.45		2.5637e+01		1.0000e+00
			-6.4		2.5648e+01		1.0000e+00
			-6.35		2.5659e+01		1.0000e+00
			-6.3		2.5670e+01		1.0000e+00
			-6.25		2.5681e+01		1.0000e+00
			-6.2		2.5692e+01		1.0000e+00
			-6.15		2.5703e+01		1.0000e+00
			-6.1		2.5714e+01		1.0000e+00
			-6.05		2.5725e+01		1.0000e+00
			-6.0		2.5736e+01		1.0000e+00
			-5.95		2.5747e+01		1.0000e+00
			-5.9		2.5758e+01		1.0000e+00
			-5.85		2.5769e+01		1.0000e+00
			-5.8		2.5780e+01		1.0000e+00
			-5.75		2.5792e+01		1.0000e+00
			-5.7		2.5798e+01		1.0000e+00
			-5.65		2.5805e+01		1.0000e+00
			-5.6		2.5812e+01		1.0000e+00
			-5.55		2.5819e+01		1.0000e+00
			-5.5		2.5828e+01		1.0000e+00
			-5.45		2.5838e+01		1.0000e+00
			-5.4		2.5847e+01		1.0000e+00
			-5.35		2.5856e+01		1.0000e+00
			-5.3		2.5862e+01		1.0000e+00
			-5.25		2.5867e+01		1.0000e+00
			-5.2		2.5873e+01		1.0000e+00
			-5.15		2.5879e+01		1.0000e+00
			-5.1		2.5888e+01		1.0000e+00
			-5.05		2.5896e+01		1.0000e+00
			-5.0		2.5905e+01		1.0000e+00
			-4.95		2.5914e+01		1.0000e+00
			-4.9		2.5922e+01		1.0000e+00
			-4.85		2.5930e+01		1.0000e+00
			-4.8		2.5938e+01		1.0000e+00
			-4.75		2.5946e+01		1.0000e+00
			-4.7		2.5951e+01		1.0000e+00
			-4.65		2.5956e+01		1.0000e+00
			-4.6		2.5960e+01		1.0000e+00
			-4.55		2.5965e+01		1.0000e+00
			-4.5		2.5972e+01		1.0000e+00
			-4.45		2.5979e+01		1.0000e+00
			-4.4		2.5985e+01		1.0000e+00
			-4.35		2.5992e+01		1.0000e+00
			-4.3		2.5995e+01		1.0000e+00
			-4.25		2.5998e+01		1.0000e+00
			-4.2		2.6000e+01		1.0000e+00
			-4.15		2.6003e+01		1.0000e+00
			-4.1		2.6008e+01		1.0000e+00
			-4.05		2.6014e+01		1.0000e+00
			-4.0		2.6019e+01		1.0000e+00
			-3.95		2.6025e+01		1.0000e+00
			-3.9		2.6029e+01		1.0000e+00
			-3.85		2.6034e+01		1.0000e+00
			-3.8		2.6038e+01		1.0000e+00
			-3.75		2.6043e+01		1.0000e+00
			-3.7		2.6047e+01		1.0000e+00
			-3.65		2.6051e+01		1.0000e+00
			-3.6		2.6055e+01		1.0000e+00
			-3.55		2.6060e+01		1.0000e+00
			-3.5		2.6061e+01		1.0000e+00
			-3.45		2.6062e+01		1.0000e+00
			-3.4		2.6064e+01		1.0000e+00
			-3.35		2.6065e+01		1.0000e+00
			-3.3		2.6062e+01		1.0000e+00
			-3.25		2.6060e+01		1.0000e+00
			-3.2		2.6057e+01		1.0000e+00
			-3.15		2.6054e+01		1.0000e+00
			-3.1		2.6056e+01		1.0000e+00
			-3.05		2.6057e+01		1.0000e+00
			-3.0		2.6058e+01		1.0000e+00
			-2.95		2.6060e+01		1.0000e+00
			-2.9		2.6061e+01		1.0000e+00
			-2.85		2.6062e+01		1.0000e+00
			-2.8		2.6063e+01		1.0000e+00
			-2.75		2.6065e+01		1.0000e+00
			-2.7		2.6063e+01		1.0000e+00
			-2.65		2.6061e+01		1.0000e+00
			-2.6		2.6059e+01		1.0000e+00
			-2.55		2.6057e+01		1.0000e+00
			-2.5		2.6058e+01		1.0000e+00
			-2.45		2.6058e+01		1.0000e+00
			-2.4		2.6058e+01		1.0000e+00
			-2.35		2.6058e+01		1.0000e+00
			-2.3		2.6058e+01		1.0000e+00
			-2.25		2.6059e+01		1.0000e+00
			-2.2		2.6059e+01		1.0000e+00
			-2.15		2.6059e+01		1.0000e+00
			-2.1		2.6059e+01		1.0000e+00
			-2.05		2.6059e+01		1.0000e+00
			-2.0		2.6059e+01		1.0000e+00
			-1.95		2.6058e+01		1.0000e+00
			-1.9		2.6054e+01		1.0000e+00
			-1.85		2.6050e+01		1.0000e+00
			-1.8		2.6046e+01		1.0000e+00
			-1.75		2.6042e+01		1.0000e+00
			-1.7		2.6043e+01		1.0000e+00
			-1.65		2.6043e+01		1.0000e+00
			-1.6		2.6044e+01		1.0000e+00
			-1.55		2.6044e+01		1.0000e+00
			-1.5		2.6041e+01		1.0000e+00
			-1.45		2.6037e+01		1.0000e+00
			-1.4		2.6034e+01		1.0000e+00
			-1.35		2.6030e+01		1.0000e+00
			-1.3		2.6029e+01		1.0000e+00
			-1.25		2.6028e+01		1.0000e+00
			-1.2		2.6027e+01		1.0000e+00
			-1.15		2.6026e+01		1.0000e+00
			-1.1		2.6026e+01		1.0000e+00
			-1.05		2.6025e+01		1.0000e+00
			-1.0		2.6025e+01		1.0000e+00
			-0.95		2.6024e+01		1.0000e+00
			-0.9		2.6019e+01		1.0000e+00
			-0.85		2.6014e+01		1.0000e+00
			-0.8		2.6009e+01		1.0000e+00
			-0.75		2.6004e+01		1.0000e+00
			-0.7		2.6002e+01		1.0000e+00
			-0.65		2.6000e+01		1.0000e+00
			-0.6		2.5998e+01		1.0000e+00
			-0.55		2.5996e+01		1.0000e+00
			-0.5		2.5989e+01		1.0000e+00
			-0.45		2.5983e+01		1.0000e+00
			-0.4		2.5977e+01		1.0000e+00
			-0.35		2.5971e+01		1.0000e+00
			-0.3		2.5968e+01		1.0000e+00
			-0.25		2.5965e+01		1.0000e+00
			-0.2		2.5963e+01		1.0000e+00
			-0.15		2.5960e+01		1.0000e+00
			-0.1		2.5961e+01		1.0000e+00
			-0.05		2.5962e+01		1.0000e+00
			0.0		2.5962e+01		1.0000e+00
			0.05		2.5963e+01		1.0000e+00
			0.1		2.5968e+01		1.0000e+00
			0.15		2.5972e+01		1.0000e+00
			0.2		2.5976e+01		1.0000e+00
			0.25		2.5980e+01		1.0000e+00
			0.3		2.5988e+01		1.0000e+00
			0.35		2.5995e+01		1.0000e+00
			0.4		2.6002e+01		1.0000e+00
			0.45		2.6009e+01		1.0000e+00
			0.5		2.6011e+01		1.0000e+00
			0.55		2.6014e+01		1.0000e+00
			0.6		2.6016e+01		1.0000e+00
			0.65		2.6018e+01		1.0000e+00
			0.7		2.6025e+01		1.0000e+00
			0.75		2.6032e+01		1.0000e+00
			0.8		2.6039e+01		1.0000e+00
			0.85		2.6046e+01		1.0000e+00
			0.9		2.6047e+01		1.0000e+00
			0.95		2.6048e+01		1.0000e+00
			1.0		2.6050e+01		1.0000e+00
			1.05		2.6051e+01		1.0000e+00
			1.1		2.6052e+01		1.0000e+00
			1.15		2.6053e+01		1.0000e+00
			1.2		2.6054e+01		1.0000e+00
			1.25		2.6055e+01		1.0000e+00
			1.3		2.6059e+01		1.0000e+00
			1.35		2.6063e+01		1.0000e+00
			1.4		2.6067e+01		1.0000e+00
			1.45		2.6071e+01		1.0000e+00
			1.5		2.6072e+01		1.0000e+00
			1.55		2.6074e+01		1.0000e+00
			1.6		2.6075e+01		1.0000e+00
			1.65		2.6077e+01		1.0000e+00
			1.7		2.6082e+01		1.0000e+00
			1.75		2.6088e+01		1.0000e+00
			1.8		2.6094e+01		1.0000e+00
			1.85		2.6099e+01		1.0000e+00
			1.9		2.6102e+01		1.0000e+00
			1.95		2.6104e+01		1.0000e+00
			2.0		2.6107e+01		1.0000e+00
			2.05		2.6110e+01		1.0000e+00
			2.1		2.6113e+01		1.0000e+00
			2.15		2.6116e+01		1.0000e+00
			2.2		2.6120e+01		1.0000e+00
			2.25		2.6123e+01		1.0000e+00
			2.3		2.6126e+01		1.0000e+00
			2.35		2.6129e+01		1.0000e+00
			2.4		2.6132e+01		1.0000e+00
			2.45		2.6135e+01		1.0000e+00
			2.5		2.6140e+01		1.0000e+00
			2.55		2.6145e+01		1.0000e+00
			2.6		2.6151e+01		1.0000e+00
			2.65		2.6156e+01		1.0000e+00
			2.7		2.6158e+01		1.0000e+00
			2.75		2.6161e+01		1.0000e+00
			2.8		2.6163e+01		1.0000e+00
			2.85		2.6165e+01		1.0000e+00
			2.9		2.6167e+01		1.0000e+00
			2.95		2.6169e+01		1.0000e+00
			3.0		2.6171e+01		1.0000e+00
			3.05		2.6173e+01		1.0000e+00
			3.1		2.6181e+01		1.0000e+00
			3.15		2.6189e+01		1.0000e+00
			3.2		2.6197e+01		1.0000e+00
			3.25		2.6205e+01		1.0000e+00
			3.3		2.6213e+01		1.0000e+00
			3.35		2.6221e+01		1.0000e+00
			3.4		2.6229e+01		1.0000e+00
			3.45		2.6238e+01		1.0000e+00
			3.5		2.6251e+01		1.0000e+00
			3.55		2.6264e+01		1.0000e+00
			3.6		2.6277e+01		1.0000e+00
			3.65		2.6291e+01		1.0000e+00
			3.7		2.6344e+01		1.0000e+00
			3.75		2.6397e+01		1.0000e+00
			3.8		2.6449e+01		1.0000e+00
			3.85		2.6502e+01		1.0000e+00
			3.9		2.6715e+01		1.0000e+00
			3.95		2.6928e+01		1.0000e+00
			4.0		2.7141e+01		1.0000e+00
			4.05		2.7354e+01		1.0000e+00
			4.1		2.8286e+01		1.0000e+00
			4.15		2.9218e+01		1.0000e+00
			4.2		3.0150e+01		1.0000e+00
			4.25		3.1082e+01		1.0000e+00
			4.3		3.1038e+01		1.0000e+00
			4.35		3.0993e+01		1.0000e+00
			4.4		3.0948e+01		1.0000e+00
			4.45		3.0903e+01		1.0000e+00
			4.5		2.9968e+01		1.0000e+00
			4.55		2.9032e+01		1.0000e+00
			4.6		2.8097e+01		1.0000e+00
			4.65		2.7161e+01		1.0000e+00
			4.7		2.6952e+01		1.0000e+00
			4.75		2.6742e+01		1.0000e+00
			4.8		2.6533e+01		1.0000e+00
			4.85		2.6324e+01		1.0000e+00
			4.9		2.6269e+01		1.0000e+00
			4.95		2.6213e+01		1.0000e+00
			5.0		2.6158e+01		1.0000e+00
			5.05		2.6103e+01		1.0000e+00
			5.1		2.6081e+01		1.0000e+00
			5.15		2.6059e+01		1.0000e+00
			5.2		2.6037e+01		1.0000e+00
			5.25		2.6016e+01		1.0000e+00
			5.3		2.5997e+01		1.0000e+00
			5.35		2.5978e+01		1.0000e+00
			5.4		2.5960e+01		1.0000e+00
			5.45		2.5941e+01		1.0000e+00
			5.5		2.5930e+01		1.0000e+00
			5.55		2.5919e+01		1.0000e+00
			5.6		2.5908e+01		1.0000e+00
			5.65		2.5897e+01		1.0000e+00
			5.7		2.5884e+01		1.0000e+00
			5.75		2.5872e+01		1.0000e+00
			5.8		2.5859e+01		1.0000e+00
			5.85		2.5846e+01		1.0000e+00
			5.9		2.5832e+01		1.0000e+00
			5.95		2.5817e+01		1.0000e+00
			6.0		2.5803e+01		1.0000e+00
			6.05		2.5788e+01		1.0000e+00
			6.1		2.5774e+01		1.0000e+00
			6.15		2.5760e+01		1.0000e+00
			6.2		2.5746e+01		1.0000e+00
			6.25		2.5732e+01		1.0000e+00
			6.3		2.5720e+01		1.0000e+00
			6.35		2.5708e+01		1.0000e+00
			6.4		2.5695e+01		1.0000e+00
			6.45		2.5683e+01		1.0000e+00
			6.5		2.5665e+01		1.0000e+00
			6.55		2.5647e+01		1.0000e+00
			6.6		2.5628e+01		1.0000e+00
			6.65		2.5610e+01		1.0000e+00
			6.7		2.5596e+01		1.0000e+00
			6.75		2.5583e+01		1.0000e+00
			6.8		2.5570e+01		1.0000e+00
			6.85		2.5556e+01		1.0000e+00
			6.9		2.5537e+01		1.0000e+00
			6.95		2.5518e+01		1.0000e+00
			7.0		2.5500e+01		1.0000e+00
			7.05		2.5481e+01		1.0000e+00
			7.1		2.5466e+01		1.0000e+00
			7.15		2.5451e+01		1.0000e+00
			7.2		2.5437e+01		1.0000e+00
			7.25		2.5422e+01		1.0000e+00
			7.3		2.5403e+01		1.0000e+00
			7.35		2.5384e+01		1.0000e+00
			7.4		2.5365e+01		1.0000e+00
			7.45		2.5347e+01		1.0000e+00
			7.5		2.5326e+01		1.0000e+00
			7.55		2.5306e+01		1.0000e+00
			7.6		2.5286e+01		1.0000e+00
			7.65		2.5266e+01		1.0000e+00
			7.7		2.5249e+01		1.0000e+00
			7.75		2.5232e+01		1.0000e+00
			7.8		2.5215e+01		1.0000e+00
			7.85		2.5198e+01		1.0000e+00
			7.9		2.5175e+01		1.0000e+00
			7.95		2.5152e+01		1.0000e+00
			8.0		2.5129e+01		1.0000e+00
			8.05		2.5107e+01		1.0000e+00
			8.1		2.5085e+01		1.0000e+00
			8.15		2.5063e+01		1.0000e+00
			8.2		2.5041e+01		1.0000e+00
			8.25		2.5019e+01		1.0000e+00
			8.3		2.4992e+01		1.0000e+00
			8.35		2.4965e+01		1.0000e+00
			8.4		2.4938e+01		1.0000e+00
			8.45		2.4911e+01		1.0000e+00
			8.5		2.4882e+01		1.0000e+00
			8.55		2.4852e+01		1.0000e+00
			8.6		2.4823e+01		1.0000e+00
			8.65		2.4794e+01		1.0000e+00
			8.7		2.4757e+01		1.0000e+00
			8.75		2.4721e+01		1.0000e+00
			8.8		2.4684e+01		1.0000e+00
			8.85		2.4648e+01		1.0000e+00
			8.9		2.4610e+01		1.0000e+00
			8.95		2.4572e+01		1.0000e+00
			9.0		2.4534e+01		1.0000e+00
			9.05		2.4496e+01		1.0000e+00
			9.1		2.4454e+01		1.0000e+00
			9.15		2.4412e+01		1.0000e+00
			9.2		2.4370e+01		1.0000e+00
			9.25		2.4327e+01		1.0000e+00
			9.3		2.4282e+01		1.0000e+00
			9.35		2.4238e+01		1.0000e+00
			9.4		2.4193e+01		1.0000e+00
			9.45		2.4148e+01		1.0000e+00
			9.5		2.4095e+01		1.0000e+00
			9.55		2.4043e+01		1.0000e+00
			9.6		2.3991e+01		1.0000e+00
			9.65		2.3938e+01		1.0000e+00
			9.7		2.3886e+01		1.0000e+00
			9.75		2.3833e+01		1.0000e+00
			9.8		2.3781e+01		1.0000e+00
			9.85		2.3728e+01		1.0000e+00
			9.9		2.3666e+01		1.0000e+00
			9.95		2.3604e+01		1.0000e+00
			10.0		2.3541e+01		1.0000e+00
			10.05		2.3479e+01		1.0000e+00
			10.1		2.3392e+01		1.0000e+00
			10.15		2.3305e+01		1.0000e+00
			10.2		2.3218e+01		1.0000e+00
			10.25		2.3131e+01		1.0000e+00
			10.3		2.2995e+01		1.0000e+00
			10.35		2.2860e+01		1.0000e+00
			10.4		2.2724e+01		1.0000e+00
			10.45		2.2588e+01		1.0000e+00
			10.5		2.2286e+01		1.0000e+00
			10.55		2.1983e+01		1.0000e+00
			10.6		2.1680e+01		1.0000e+00
			10.65		2.1377e+01		1.0000e+00
			10.7		2.0445e+01		1.0000e+00
			10.75		1.9513e+01		1.0000e+00
			10.8		1.8580e+01		1.0000e+00
			10.85		1.7648e+01		1.0000e+00
			10.9		1.5634e+01		1.0000e+00
			10.95		1.3620e+01		1.0000e+00
			11.0		1.1606e+01		1.0000e+00
			11.05		9.5920e+00		1.0000e+00
			11.1		8.5412e+00		1.0000e+00
			11.15		7.4903e+00		1.0000e+00
			11.2		6.4395e+00		1.0000e+00
			11.25		5.3888e+00		1.0000e+00
			11.3		5.1288e+00		1.0000e+00
			11.35		4.8688e+00		1.0000e+00
			11.4		4.6088e+00		1.0000e+00
			11.45		4.3488e+00		1.0000e+00
			11.5		4.2761e+00		1.0000e+00
			11.55		4.2033e+00		1.0000e+00
			11.6		4.1305e+00		1.0000e+00
			11.65		4.0577e+00		1.0000e+00
			11.7		3.9849e+00		1.0000e+00
			11.75		3.9122e+00		1.0000e+00
			11.8		3.8395e+00		1.0000e+00
			11.85		3.7667e+00		1.0000e+00
			11.9		3.6940e+00		1.0000e+00
			11.95		3.6213e+00		1.0000e+00
			12.0		3.5487e+00		1.0000e+00
			12.05		3.4760e+00		1.0000e+00
			12.1		3.4033e+00		1.0000e+00
			12.15		3.3307e+00		1.0000e+00
			12.2		3.2581e+00		1.0000e+00
			12.25		3.1854e+00		1.0000e+00
			12.3		3.1497e+00		1.0000e+00
			12.35		3.1140e+00		1.0000e+00
			12.4		3.0783e+00		1.0000e+00
			12.45		3.0426e+00		1.0000e+00
			12.5		3.0069e+00		1.0000e+00
			12.55		2.9712e+00		1.0000e+00
			12.6		2.9355e+00		1.0000e+00
			12.65		2.8998e+00		1.0000e+00
			12.7		2.8641e+00		1.0000e+00
			12.75		2.8285e+00		1.0000e+00
			12.8		2.7928e+00		1.0000e+00
			12.85		2.7571e+00		1.0000e+00
			12.9		2.7215e+00		1.0000e+00
			12.95		2.6858e+00		1.0000e+00
			13.0		2.6502e+00		1.0000e+00
			13.05		2.6146e+00		1.0000e+00
			13.1		2.5848e+00		1.0000e+00
			13.15		2.5551e+00		1.0000e+00
			13.2		2.5254e+00		1.0000e+00
			13.25		2.4957e+00		1.0000e+00
			13.3		2.4660e+00		1.0000e+00
			13.35		2.4364e+00		1.0000e+00
			13.4		2.4067e+00		1.0000e+00
			13.45		2.3770e+00		1.0000e+00
			13.5		2.3473e+00		1.0000e+00
			13.55		2.3177e+00		1.0000e+00
			13.6		2.2880e+00		1.0000e+00
			13.65		2.2583e+00		1.0000e+00
			13.7		2.2287e+00		1.0000e+00
			13.75		2.1991e+00		1.0000e+00
			13.8		2.1694e+00		1.0000e+00
			13.85		2.1398e+00		1.0000e+00
			13.9		2.1178e+00		1.0000e+00
			13.95		2.0958e+00		1.0000e+00
