BEGIN_SCAN_DATA
	FORMAT=CC-Export V1.9                  
	FILE_CREATION_DATE=
	LAST_MODIFIED=11-Jan-2023 10:50:22
	BEGIN_SCAN  1
		TASK_NAME=RayStation Phantom Profiles & PDDs
		PROGRAM=RayStation
		COMMENT=RayStation Script Export
		MEAS_DATE=11-Jan-2023 10:50:22
		LINAC=RayStation
		MODALITY=X
		ISOCENTER=1000.00
		INPLANE_AXIS=Y
		CROSSPLANE_AXIS=X
		DEPTH_AXIS=Z
		INPLANE_AXIS_DIR=GUN_TARGET
		CROSSPLANE_AXIS_DIR=LEFT_RIGHT
		DEPTH_AXIS_DIR=UP_DOWN
		ENERGY=6.3
		NOMINAL_DMAX=20.00
		SSD=1000.0
		SCD=1000.00
		WEDGE_ANGLE=0.00
		FIELD_INPLANE=200.0
		FIELD_CROSSPLANE=200.0
		FIELD_TYPE=IRREGULAR
		GANTRY=0.00
		GANTRY_UPRIGHT_POSITION=0
		GANTRY_ROTATION=CW
		COLL_ANGLE=0.00
		REF_FIELD_DEPTH=50.00
		REF_FIELD_DEFINED=ISOCENTER
		FIELD_INPLANE=200.0
		FIELD_CROSSPLANE=200.0
		SCAN_CURVETYPE=CROSSPLANE_PROFILE
		SCAN_DEPTH=100.0
		SCAN_OFFAXIS_INPLANE=0.00
		SCAN_OFFAXIS_CROSSPLANE=0.00
		SCAN_ANGLE=0.00
		SCAN_DIAGONAL=NOT_DIAGONAL
		SCAN_DIRECTION=NEGATIVE
		MEAS_MEDIUM=WATER
		MEAS_UNIT=cGy
		INCLINATION_ANGLE=0.00
		PRESSURE=1013.20
		TEMPERATURE=20.00
		NORM_TEMPERATURE=20.00
		CORRECTION_FACTOR=1.0000;
		BEGIN_DATA
			-30.05		6.2435e-04		1.0000e+00
			-30.0		9.3651e-04		1.0000e+00
			-29.95		1.2486e-03		1.0000e+00
			-29.9		1.2997e-03		1.0000e+00
			-29.85		1.3507e-03		1.0000e+00
			-29.8		1.4017e-03		1.0000e+00
			-29.75		1.4527e-03		1.0000e+00
			-29.7		1.4632e-03		1.0000e+00
			-29.65		1.4738e-03		1.0000e+00
			-29.6		1.4843e-03		1.0000e+00
			-29.55		1.4948e-03		1.0000e+00
			-29.5		1.5622e-03		1.0000e+00
			-29.45		1.6296e-03		1.0000e+00
			-29.4		1.6970e-03		1.0000e+00
			-29.35		1.7644e-03		1.0000e+00
			-29.3		1.7739e-03		1.0000e+00
			-29.25		1.7834e-03		1.0000e+00
			-29.2		1.7928e-03		1.0000e+00
			-29.15		1.8023e-03		1.0000e+00
			-29.1		1.8855e-03		1.0000e+00
			-29.05		1.9688e-03		1.0000e+00
			-29.0		2.0520e-03		1.0000e+00
			-28.95		2.1352e-03		1.0000e+00
			-28.9		2.1481e-03		1.0000e+00
			-28.85		2.1610e-03		1.0000e+00
			-28.8		2.1738e-03		1.0000e+00
			-28.75		2.1867e-03		1.0000e+00
			-28.7		2.2857e-03		1.0000e+00
			-28.65		2.3848e-03		1.0000e+00
			-28.6		2.4838e-03		1.0000e+00
			-28.55		2.5829e-03		1.0000e+00
			-28.5		2.6058e-03		1.0000e+00
			-28.45		2.6288e-03		1.0000e+00
			-28.4		2.6517e-03		1.0000e+00
			-28.35		2.6747e-03		1.0000e+00
			-28.3		2.7881e-03		1.0000e+00
			-28.25		2.9015e-03		1.0000e+00
			-28.2		3.0149e-03		1.0000e+00
			-28.15		3.1283e-03		1.0000e+00
			-28.1		3.1690e-03		1.0000e+00
			-28.05		3.2097e-03		1.0000e+00
			-28.0		3.2503e-03		1.0000e+00
			-27.95		3.2910e-03		1.0000e+00
			-27.9		3.4186e-03		1.0000e+00
			-27.85		3.5462e-03		1.0000e+00
			-27.8		3.6738e-03		1.0000e+00
			-27.75		3.8014e-03		1.0000e+00
			-27.7		3.8686e-03		1.0000e+00
			-27.65		3.9359e-03		1.0000e+00
			-27.6		4.0031e-03		1.0000e+00
			-27.55		4.0704e-03		1.0000e+00
			-27.5		4.2033e-03		1.0000e+00
			-27.45		4.3362e-03		1.0000e+00
			-27.4		4.4691e-03		1.0000e+00
			-27.35		4.6020e-03		1.0000e+00
			-27.3		4.7078e-03		1.0000e+00
			-27.25		4.8136e-03		1.0000e+00
			-27.2		4.9194e-03		1.0000e+00
			-27.15		5.0252e-03		1.0000e+00
			-27.1		5.1543e-03		1.0000e+00
			-27.05		5.2833e-03		1.0000e+00
			-27.0		5.4124e-03		1.0000e+00
			-26.95		5.5415e-03		1.0000e+00
			-26.9		5.7067e-03		1.0000e+00
			-26.85		5.8720e-03		1.0000e+00
			-26.8		6.0373e-03		1.0000e+00
			-26.75		6.2025e-03		1.0000e+00
			-26.7		6.3188e-03		1.0000e+00
			-26.65		6.4351e-03		1.0000e+00
			-26.6		6.5514e-03		1.0000e+00
			-26.55		6.6677e-03		1.0000e+00
			-26.5		6.9025e-03		1.0000e+00
			-26.45		7.1374e-03		1.0000e+00
			-26.4		7.3722e-03		1.0000e+00
			-26.35		7.6070e-03		1.0000e+00
			-26.3		7.7131e-03		1.0000e+00
			-26.25		7.8191e-03		1.0000e+00
			-26.2		7.9251e-03		1.0000e+00
			-26.15		8.0312e-03		1.0000e+00
			-26.1		8.3466e-03		1.0000e+00
			-26.05		8.6621e-03		1.0000e+00
			-26.0		8.9775e-03		1.0000e+00
			-25.95		9.2929e-03		1.0000e+00
			-25.9		9.3852e-03		1.0000e+00
			-25.85		9.4774e-03		1.0000e+00
			-25.8		9.5697e-03		1.0000e+00
			-25.75		9.6620e-03		1.0000e+00
			-25.7		1.0068e-02		1.0000e+00
			-25.65		1.0473e-02		1.0000e+00
			-25.6		1.0879e-02		1.0000e+00
			-25.55		1.1284e-02		1.0000e+00
			-25.5		1.1359e-02		1.0000e+00
			-25.45		1.1434e-02		1.0000e+00
			-25.4		1.1508e-02		1.0000e+00
			-25.35		1.1583e-02		1.0000e+00
			-25.3		1.2095e-02		1.0000e+00
			-25.25		1.2607e-02		1.0000e+00
			-25.2		1.3119e-02		1.0000e+00
			-25.15		1.3631e-02		1.0000e+00
			-25.1		1.3696e-02		1.0000e+00
			-25.05		1.3760e-02		1.0000e+00
			-25.0		1.3825e-02		1.0000e+00
			-24.95		1.3890e-02		1.0000e+00
			-24.9		1.4487e-02		1.0000e+00
			-24.85		1.5085e-02		1.0000e+00
			-24.8		1.5683e-02		1.0000e+00
			-24.75		1.6280e-02		1.0000e+00
			-24.7		1.6371e-02		1.0000e+00
			-24.65		1.6462e-02		1.0000e+00
			-24.6		1.6553e-02		1.0000e+00
			-24.55		1.6643e-02		1.0000e+00
			-24.5		1.7314e-02		1.0000e+00
			-24.45		1.7985e-02		1.0000e+00
			-24.4		1.8655e-02		1.0000e+00
			-24.35		1.9326e-02		1.0000e+00
			-24.3		1.9489e-02		1.0000e+00
			-24.25		1.9652e-02		1.0000e+00
			-24.2		1.9814e-02		1.0000e+00
			-24.15		1.9977e-02		1.0000e+00
			-24.1		2.0695e-02		1.0000e+00
			-24.05		2.1412e-02		1.0000e+00
			-24.0		2.2129e-02		1.0000e+00
			-23.95		2.2846e-02		1.0000e+00
			-23.9		2.3104e-02		1.0000e+00
			-23.85		2.3361e-02		1.0000e+00
			-23.8		2.3618e-02		1.0000e+00
			-23.75		2.3875e-02		1.0000e+00
			-23.7		2.4619e-02		1.0000e+00
			-23.65		2.5364e-02		1.0000e+00
			-23.6		2.6108e-02		1.0000e+00
			-23.55		2.6852e-02		1.0000e+00
			-23.5		2.7242e-02		1.0000e+00
			-23.45		2.7632e-02		1.0000e+00
			-23.4		2.8022e-02		1.0000e+00
			-23.35		2.8413e-02		1.0000e+00
			-23.3		2.9129e-02		1.0000e+00
			-23.25		2.9846e-02		1.0000e+00
			-23.2		3.0563e-02		1.0000e+00
			-23.15		3.1279e-02		1.0000e+00
			-23.1		3.1862e-02		1.0000e+00
			-23.05		3.2444e-02		1.0000e+00
			-23.0		3.3027e-02		1.0000e+00
			-22.95		3.3609e-02		1.0000e+00
			-22.9		3.4238e-02		1.0000e+00
			-22.85		3.4867e-02		1.0000e+00
			-22.8		3.5496e-02		1.0000e+00
			-22.75		3.6125e-02		1.0000e+00
			-22.7		3.6982e-02		1.0000e+00
			-22.65		3.7839e-02		1.0000e+00
			-22.6		3.8696e-02		1.0000e+00
			-22.55		3.9552e-02		1.0000e+00
			-22.5		4.0083e-02		1.0000e+00
			-22.45		4.0615e-02		1.0000e+00
			-22.4		4.1146e-02		1.0000e+00
			-22.35		4.1677e-02		1.0000e+00
			-22.3		4.2823e-02		1.0000e+00
			-22.25		4.3970e-02		1.0000e+00
			-22.2		4.5116e-02		1.0000e+00
			-22.15		4.6262e-02		1.0000e+00
			-22.1		4.6721e-02		1.0000e+00
			-22.05		4.7180e-02		1.0000e+00
			-22.0		4.7638e-02		1.0000e+00
			-21.95		4.8097e-02		1.0000e+00
			-21.9		4.9516e-02		1.0000e+00
			-21.85		5.0934e-02		1.0000e+00
			-21.8		5.2353e-02		1.0000e+00
			-21.75		5.3771e-02		1.0000e+00
			-21.7		5.4145e-02		1.0000e+00
			-21.65		5.4519e-02		1.0000e+00
			-21.6		5.4893e-02		1.0000e+00
			-21.55		5.5267e-02		1.0000e+00
			-21.5		5.6963e-02		1.0000e+00
			-21.45		5.8660e-02		1.0000e+00
			-21.4		6.0356e-02		1.0000e+00
			-21.35		6.2052e-02		1.0000e+00
			-21.3		6.2320e-02		1.0000e+00
			-21.25		6.2588e-02		1.0000e+00
			-21.2		6.2856e-02		1.0000e+00
			-21.15		6.3124e-02		1.0000e+00
			-21.1		6.5110e-02		1.0000e+00
			-21.05		6.7095e-02		1.0000e+00
			-21.0		6.9081e-02		1.0000e+00
			-20.95		7.1067e-02		1.0000e+00
			-20.9		7.1293e-02		1.0000e+00
			-20.85		7.1520e-02		1.0000e+00
			-20.8		7.1747e-02		1.0000e+00
			-20.75		7.1974e-02		1.0000e+00
			-20.7		7.4122e-02		1.0000e+00
			-20.65		7.6271e-02		1.0000e+00
			-20.6		7.8419e-02		1.0000e+00
			-20.55		8.0567e-02		1.0000e+00
			-20.5		8.0893e-02		1.0000e+00
			-20.45		8.1220e-02		1.0000e+00
			-20.4		8.1546e-02		1.0000e+00
			-20.35		8.1873e-02		1.0000e+00
			-20.3		8.4099e-02		1.0000e+00
			-20.25		8.6325e-02		1.0000e+00
			-20.2		8.8551e-02		1.0000e+00
			-20.15		9.0777e-02		1.0000e+00
			-20.1		9.1350e-02		1.0000e+00
			-20.05		9.1924e-02		1.0000e+00
			-20.0		9.2498e-02		1.0000e+00
			-19.95		9.3070e-02		1.0000e+00
			-19.9		7.5584e-02		1.0000e+00
			-19.85		5.8097e-02		1.0000e+00
			-19.8		4.0611e-02		1.0000e+00
			-19.75		2.3129e-02		1.0000e+00
			-19.7		5.6882e-02		1.0000e+00
			-19.65		9.0636e-02		1.0000e+00
			-19.6		1.2439e-01		1.0000e+00
			-19.55		1.5814e-01		1.0000e+00
			-19.5		1.9192e-01		1.0000e+00
			-19.45		2.2570e-01		1.0000e+00
			-19.4		2.5948e-01		1.0000e+00
			-19.35		2.9326e-01		1.0000e+00
			-19.3		3.2707e-01		1.0000e+00
			-19.25		3.6087e-01		1.0000e+00
			-19.2		3.9468e-01		1.0000e+00
			-19.15		4.2849e-01		1.0000e+00
			-19.1		4.6232e-01		1.0000e+00
			-19.05		4.9615e-01		1.0000e+00
			-19.0		5.2998e-01		1.0000e+00
			-18.95		5.6381e-01		1.0000e+00
			-18.9		5.6745e-01		1.0000e+00
			-18.85		5.7110e-01		1.0000e+00
			-18.8		5.7475e-01		1.0000e+00
			-18.75		5.7839e-01		1.0000e+00
			-18.7		5.8204e-01		1.0000e+00
			-18.65		5.8569e-01		1.0000e+00
			-18.6		5.8934e-01		1.0000e+00
			-18.55		5.9298e-01		1.0000e+00
			-18.5		5.9663e-01		1.0000e+00
			-18.45		6.0028e-01		1.0000e+00
			-18.4		6.0394e-01		1.0000e+00
			-18.35		6.0759e-01		1.0000e+00
			-18.3		6.1124e-01		1.0000e+00
			-18.25		6.1489e-01		1.0000e+00
			-18.2		6.1854e-01		1.0000e+00
			-18.15		6.2219e-01		1.0000e+00
			-18.1		6.2688e-01		1.0000e+00
			-18.05		6.3157e-01		1.0000e+00
			-18.0		6.3626e-01		1.0000e+00
			-17.95		6.4095e-01		1.0000e+00
			-17.9		6.4564e-01		1.0000e+00
			-17.85		6.5033e-01		1.0000e+00
			-17.8		6.5502e-01		1.0000e+00
			-17.75		6.5971e-01		1.0000e+00
			-17.7		6.6441e-01		1.0000e+00
			-17.65		6.6910e-01		1.0000e+00
			-17.6		6.7380e-01		1.0000e+00
			-17.55		6.7849e-01		1.0000e+00
			-17.5		6.8319e-01		1.0000e+00
			-17.45		6.8789e-01		1.0000e+00
			-17.4		6.9258e-01		1.0000e+00
			-17.35		6.9728e-01		1.0000e+00
			-17.3		7.0327e-01		1.0000e+00
			-17.25		7.0927e-01		1.0000e+00
			-17.2		7.1526e-01		1.0000e+00
			-17.15		7.2125e-01		1.0000e+00
			-17.1		7.2725e-01		1.0000e+00
			-17.05		7.3325e-01		1.0000e+00
			-17.0		7.3924e-01		1.0000e+00
			-16.95		7.4524e-01		1.0000e+00
			-16.9		7.5124e-01		1.0000e+00
			-16.85		7.5724e-01		1.0000e+00
			-16.8		7.6324e-01		1.0000e+00
			-16.75		7.6925e-01		1.0000e+00
			-16.7		7.7525e-01		1.0000e+00
			-16.65		7.8125e-01		1.0000e+00
			-16.6		7.8726e-01		1.0000e+00
			-16.55		7.9326e-01		1.0000e+00
			-16.5		8.0076e-01		1.0000e+00
			-16.45		8.0827e-01		1.0000e+00
			-16.4		8.1577e-01		1.0000e+00
			-16.35		8.2328e-01		1.0000e+00
			-16.3		8.3079e-01		1.0000e+00
			-16.25		8.3830e-01		1.0000e+00
			-16.2		8.4580e-01		1.0000e+00
			-16.15		8.5331e-01		1.0000e+00
			-16.1		8.6083e-01		1.0000e+00
			-16.05		8.6834e-01		1.0000e+00
			-16.0		8.7585e-01		1.0000e+00
			-15.95		8.8336e-01		1.0000e+00
			-15.9		8.9088e-01		1.0000e+00
			-15.85		8.9840e-01		1.0000e+00
			-15.8		9.0591e-01		1.0000e+00
			-15.75		9.1343e-01		1.0000e+00
			-15.7		9.2406e-01		1.0000e+00
			-15.65		9.3469e-01		1.0000e+00
			-15.6		9.4533e-01		1.0000e+00
			-15.55		9.5596e-01		1.0000e+00
			-15.5		9.6659e-01		1.0000e+00
			-15.45		9.7723e-01		1.0000e+00
			-15.4		9.8787e-01		1.0000e+00
			-15.35		9.9851e-01		1.0000e+00
			-15.3		1.0091e+00		1.0000e+00
			-15.25		1.0198e+00		1.0000e+00
			-15.2		1.0304e+00		1.0000e+00
			-15.15		1.0411e+00		1.0000e+00
			-15.1		1.0517e+00		1.0000e+00
			-15.05		1.0624e+00		1.0000e+00
			-15.0		1.0730e+00		1.0000e+00
			-14.95		1.0837e+00		1.0000e+00
			-14.9		1.1032e+00		1.0000e+00
			-14.85		1.1228e+00		1.0000e+00
			-14.8		1.1424e+00		1.0000e+00
			-14.75		1.1619e+00		1.0000e+00
			-14.7		1.1814e+00		1.0000e+00
			-14.65		1.2010e+00		1.0000e+00
			-14.6		1.2205e+00		1.0000e+00
			-14.55		1.2400e+00		1.0000e+00
			-14.5		1.2912e+00		1.0000e+00
			-14.45		1.3423e+00		1.0000e+00
			-14.4		1.3935e+00		1.0000e+00
			-14.35		1.4447e+00		1.0000e+00
			-14.3		1.6354e+00		1.0000e+00
			-14.25		1.8261e+00		1.0000e+00
			-14.2		2.0169e+00		1.0000e+00
			-14.15		2.2076e+00		1.0000e+00
			-14.1		2.4732e+00		1.0000e+00
			-14.05		2.7389e+00		1.0000e+00
			-14.0		3.0045e+00		1.0000e+00
			-13.95		3.2701e+00		1.0000e+00
			-13.9		3.4275e+00		1.0000e+00
			-13.85		3.5850e+00		1.0000e+00
			-13.8		3.7425e+00		1.0000e+00
			-13.75		3.9000e+00		1.0000e+00
			-13.7		3.9639e+00		1.0000e+00
			-13.65		4.0279e+00		1.0000e+00
			-13.6		4.0919e+00		1.0000e+00
			-13.55		4.1559e+00		1.0000e+00
			-13.5		4.1876e+00		1.0000e+00
			-13.45		4.2192e+00		1.0000e+00
			-13.4		4.2509e+00		1.0000e+00
			-13.35		4.2825e+00		1.0000e+00
			-13.3		4.3008e+00		1.0000e+00
			-13.25		4.3192e+00		1.0000e+00
			-13.2		4.3375e+00		1.0000e+00
			-13.15		4.3558e+00		1.0000e+00
			-13.1		4.3671e+00		1.0000e+00
			-13.05		4.3784e+00		1.0000e+00
			-13.0		4.3896e+00		1.0000e+00
			-12.95		4.4009e+00		1.0000e+00
			-12.9		4.4138e+00		1.0000e+00
			-12.85		4.4266e+00		1.0000e+00
			-12.8		4.4395e+00		1.0000e+00
			-12.75		4.4524e+00		1.0000e+00
			-12.7		4.4633e+00		1.0000e+00
			-12.65		4.4742e+00		1.0000e+00
			-12.6		4.4851e+00		1.0000e+00
			-12.55		4.4960e+00		1.0000e+00
			-12.5		4.5059e+00		1.0000e+00
			-12.45		4.5157e+00		1.0000e+00
			-12.4		4.5255e+00		1.0000e+00
			-12.35		4.5354e+00		1.0000e+00
			-12.3		4.5461e+00		1.0000e+00
			-12.25		4.5569e+00		1.0000e+00
			-12.2		4.5677e+00		1.0000e+00
			-12.15		4.5784e+00		1.0000e+00
			-12.1		4.5888e+00		1.0000e+00
			-12.05		4.5992e+00		1.0000e+00
			-12.0		4.6095e+00		1.0000e+00
			-11.95		4.6199e+00		1.0000e+00
			-11.9		4.6306e+00		1.0000e+00
			-11.85		4.6413e+00		1.0000e+00
			-11.8		4.6520e+00		1.0000e+00
			-11.75		4.6627e+00		1.0000e+00
			-11.7		4.6739e+00		1.0000e+00
			-11.65		4.6851e+00		1.0000e+00
			-11.6		4.6963e+00		1.0000e+00
			-11.55		4.7075e+00		1.0000e+00
			-11.5		4.7161e+00		1.0000e+00
			-11.45		4.7247e+00		1.0000e+00
			-11.4		4.7333e+00		1.0000e+00
			-11.35		4.7419e+00		1.0000e+00
			-11.3		4.7505e+00		1.0000e+00
			-11.25		4.7591e+00		1.0000e+00
			-11.2		4.7677e+00		1.0000e+00
			-11.15		4.7762e+00		1.0000e+00
			-11.1		4.7844e+00		1.0000e+00
			-11.05		4.7926e+00		1.0000e+00
			-11.0		4.8008e+00		1.0000e+00
			-10.95		4.8090e+00		1.0000e+00
			-10.9		4.8172e+00		1.0000e+00
			-10.85		4.8254e+00		1.0000e+00
			-10.8		4.8335e+00		1.0000e+00
			-10.75		4.8417e+00		1.0000e+00
			-10.7		4.8484e+00		1.0000e+00
			-10.65		4.8551e+00		1.0000e+00
			-10.6		4.8618e+00		1.0000e+00
			-10.55		4.8685e+00		1.0000e+00
			-10.5		4.8760e+00		1.0000e+00
			-10.45		4.8835e+00		1.0000e+00
			-10.4		4.8909e+00		1.0000e+00
			-10.35		4.8984e+00		1.0000e+00
			-10.3		4.9060e+00		1.0000e+00
			-10.25		4.9136e+00		1.0000e+00
			-10.2		4.9211e+00		1.0000e+00
			-10.15		4.9287e+00		1.0000e+00
			-10.1		4.9362e+00		1.0000e+00
			-10.05		4.9437e+00		1.0000e+00
			-10.0		4.9513e+00		1.0000e+00
			-9.95		4.9588e+00		1.0000e+00
			-9.9		4.9655e+00		1.0000e+00
			-9.85		4.9722e+00		1.0000e+00
			-9.8		4.9789e+00		1.0000e+00
			-9.75		4.9856e+00		1.0000e+00
			-9.7		4.9924e+00		1.0000e+00
			-9.65		4.9993e+00		1.0000e+00
			-9.6		5.0062e+00		1.0000e+00
			-9.55		5.0131e+00		1.0000e+00
			-9.5		5.0199e+00		1.0000e+00
			-9.45		5.0266e+00		1.0000e+00
			-9.4		5.0334e+00		1.0000e+00
			-9.35		5.0402e+00		1.0000e+00
			-9.3		5.0475e+00		1.0000e+00
			-9.25		5.0549e+00		1.0000e+00
			-9.2		5.0623e+00		1.0000e+00
			-9.15		5.0696e+00		1.0000e+00
			-9.1		5.0756e+00		1.0000e+00
			-9.05		5.0816e+00		1.0000e+00
			-9.0		5.0876e+00		1.0000e+00
			-8.95		5.0936e+00		1.0000e+00
			-8.9		5.1000e+00		1.0000e+00
			-8.85		5.1063e+00		1.0000e+00
			-8.8		5.1127e+00		1.0000e+00
			-8.75		5.1190e+00		1.0000e+00
			-8.7		5.1245e+00		1.0000e+00
			-8.65		5.1299e+00		1.0000e+00
			-8.6		5.1353e+00		1.0000e+00
			-8.55		5.1408e+00		1.0000e+00
			-8.5		5.1462e+00		1.0000e+00
			-8.45		5.1517e+00		1.0000e+00
			-8.4		5.1571e+00		1.0000e+00
			-8.35		5.1626e+00		1.0000e+00
			-8.3		5.1668e+00		1.0000e+00
			-8.25		5.1709e+00		1.0000e+00
			-8.2		5.1751e+00		1.0000e+00
			-8.15		5.1793e+00		1.0000e+00
			-8.1		5.1848e+00		1.0000e+00
			-8.05		5.1903e+00		1.0000e+00
			-8.0		5.1958e+00		1.0000e+00
			-7.95		5.2013e+00		1.0000e+00
			-7.9		5.2060e+00		1.0000e+00
			-7.85		5.2106e+00		1.0000e+00
			-7.8		5.2152e+00		1.0000e+00
			-7.75		5.2198e+00		1.0000e+00
			-7.7		5.2251e+00		1.0000e+00
			-7.65		5.2304e+00		1.0000e+00
			-7.6		5.2357e+00		1.0000e+00
			-7.55		5.2410e+00		1.0000e+00
			-7.5		5.2461e+00		1.0000e+00
			-7.45		5.2511e+00		1.0000e+00
			-7.4		5.2562e+00		1.0000e+00
			-7.35		5.2613e+00		1.0000e+00
			-7.3		5.2659e+00		1.0000e+00
			-7.25		5.2706e+00		1.0000e+00
			-7.2		5.2753e+00		1.0000e+00
			-7.15		5.2800e+00		1.0000e+00
			-7.1		5.2849e+00		1.0000e+00
			-7.05		5.2898e+00		1.0000e+00
			-7.0		5.2947e+00		1.0000e+00
			-6.95		5.2996e+00		1.0000e+00
			-6.9		5.3042e+00		1.0000e+00
			-6.85		5.3089e+00		1.0000e+00
			-6.8		5.3136e+00		1.0000e+00
			-6.75		5.3183e+00		1.0000e+00
			-6.7		5.3230e+00		1.0000e+00
			-6.65		5.3276e+00		1.0000e+00
			-6.6		5.3323e+00		1.0000e+00
			-6.55		5.3370e+00		1.0000e+00
			-6.5		5.3418e+00		1.0000e+00
			-6.45		5.3467e+00		1.0000e+00
			-6.4		5.3515e+00		1.0000e+00
			-6.35		5.3564e+00		1.0000e+00
			-6.3		5.3609e+00		1.0000e+00
			-6.25		5.3654e+00		1.0000e+00
			-6.2		5.3700e+00		1.0000e+00
			-6.15		5.3745e+00		1.0000e+00
			-6.1		5.3778e+00		1.0000e+00
			-6.05		5.3811e+00		1.0000e+00
			-6.0		5.3843e+00		1.0000e+00
			-5.95		5.3876e+00		1.0000e+00
			-5.9		5.3912e+00		1.0000e+00
			-5.85		5.3948e+00		1.0000e+00
			-5.8		5.3983e+00		1.0000e+00
			-5.75		5.4019e+00		1.0000e+00
			-5.7		5.4057e+00		1.0000e+00
			-5.65		5.4095e+00		1.0000e+00
			-5.6		5.4133e+00		1.0000e+00
			-5.55		5.4171e+00		1.0000e+00
			-5.5		5.4202e+00		1.0000e+00
			-5.45		5.4234e+00		1.0000e+00
			-5.4		5.4266e+00		1.0000e+00
			-5.35		5.4297e+00		1.0000e+00
			-5.3		5.4328e+00		1.0000e+00
			-5.25		5.4358e+00		1.0000e+00
			-5.2		5.4389e+00		1.0000e+00
			-5.15		5.4419e+00		1.0000e+00
			-5.1		5.4450e+00		1.0000e+00
			-5.05		5.4481e+00		1.0000e+00
			-5.0		5.4512e+00		1.0000e+00
			-4.95		5.4543e+00		1.0000e+00
			-4.9		5.4575e+00		1.0000e+00
			-4.85		5.4607e+00		1.0000e+00
			-4.8		5.4639e+00		1.0000e+00
			-4.75		5.4671e+00		1.0000e+00
			-4.7		5.4702e+00		1.0000e+00
			-4.65		5.4733e+00		1.0000e+00
			-4.6		5.4764e+00		1.0000e+00
			-4.55		5.4795e+00		1.0000e+00
			-4.5		5.4823e+00		1.0000e+00
			-4.45		5.4850e+00		1.0000e+00
			-4.4		5.4878e+00		1.0000e+00
			-4.35		5.4906e+00		1.0000e+00
			-4.3		5.4926e+00		1.0000e+00
			-4.25		5.4945e+00		1.0000e+00
			-4.2		5.4965e+00		1.0000e+00
			-4.15		5.4984e+00		1.0000e+00
			-4.1		5.5005e+00		1.0000e+00
			-4.05		5.5026e+00		1.0000e+00
			-4.0		5.5046e+00		1.0000e+00
			-3.95		5.5067e+00		1.0000e+00
			-3.9		5.5086e+00		1.0000e+00
			-3.85		5.5105e+00		1.0000e+00
			-3.8		5.5125e+00		1.0000e+00
			-3.75		5.5144e+00		1.0000e+00
			-3.7		5.5159e+00		1.0000e+00
			-3.65		5.5173e+00		1.0000e+00
			-3.6		5.5188e+00		1.0000e+00
			-3.55		5.5202e+00		1.0000e+00
			-3.5		5.5212e+00		1.0000e+00
			-3.45		5.5223e+00		1.0000e+00
			-3.4		5.5233e+00		1.0000e+00
			-3.35		5.5244e+00		1.0000e+00
			-3.3		5.5253e+00		1.0000e+00
			-3.25		5.5262e+00		1.0000e+00
			-3.2		5.5272e+00		1.0000e+00
			-3.15		5.5281e+00		1.0000e+00
			-3.1		5.5288e+00		1.0000e+00
			-3.05		5.5294e+00		1.0000e+00
			-3.0		5.5300e+00		1.0000e+00
			-2.95		5.5307e+00		1.0000e+00
			-2.9		5.5312e+00		1.0000e+00
			-2.85		5.5316e+00		1.0000e+00
			-2.8		5.5321e+00		1.0000e+00
			-2.75		5.5326e+00		1.0000e+00
			-2.7		5.5327e+00		1.0000e+00
			-2.65		5.5328e+00		1.0000e+00
			-2.6		5.5329e+00		1.0000e+00
			-2.55		5.5330e+00		1.0000e+00
			-2.5		5.5324e+00		1.0000e+00
			-2.45		5.5319e+00		1.0000e+00
			-2.4		5.5313e+00		1.0000e+00
			-2.35		5.5307e+00		1.0000e+00
			-2.3		5.5310e+00		1.0000e+00
			-2.25		5.5312e+00		1.0000e+00
			-2.2		5.5314e+00		1.0000e+00
			-2.15		5.5316e+00		1.0000e+00
			-2.1		5.5317e+00		1.0000e+00
			-2.05		5.5318e+00		1.0000e+00
			-2.0		5.5319e+00		1.0000e+00
			-1.95		5.5320e+00		1.0000e+00
			-1.9		5.5321e+00		1.0000e+00
			-1.85		5.5322e+00		1.0000e+00
			-1.8		5.5323e+00		1.0000e+00
			-1.75		5.5324e+00		1.0000e+00
			-1.7		5.5325e+00		1.0000e+00
			-1.65		5.5325e+00		1.0000e+00
			-1.6		5.5325e+00		1.0000e+00
			-1.55		5.5326e+00		1.0000e+00
			-1.5		5.5327e+00		1.0000e+00
			-1.45		5.5328e+00		1.0000e+00
			-1.4		5.5329e+00		1.0000e+00
			-1.35		5.5330e+00		1.0000e+00
			-1.3		5.5328e+00		1.0000e+00
			-1.25		5.5326e+00		1.0000e+00
			-1.2		5.5324e+00		1.0000e+00
			-1.15		5.5322e+00		1.0000e+00
			-1.1		5.5317e+00		1.0000e+00
			-1.05		5.5311e+00		1.0000e+00
			-1.0		5.5306e+00		1.0000e+00
			-0.95		5.5300e+00		1.0000e+00
			-0.9		5.5300e+00		1.0000e+00
			-0.85		5.5300e+00		1.0000e+00
			-0.8		5.5300e+00		1.0000e+00
			-0.75		5.5300e+00		1.0000e+00
			-0.7		5.5299e+00		1.0000e+00
			-0.65		5.5299e+00		1.0000e+00
			-0.6		5.5299e+00		1.0000e+00
			-0.55		5.5299e+00		1.0000e+00
			-0.5		5.5295e+00		1.0000e+00
			-0.45		5.5290e+00		1.0000e+00
			-0.4		5.5286e+00		1.0000e+00
			-0.35		5.5281e+00		1.0000e+00
			-0.3		5.5282e+00		1.0000e+00
			-0.25		5.5282e+00		1.0000e+00
			-0.2		5.5283e+00		1.0000e+00
			-0.15		5.5284e+00		1.0000e+00
			-0.1		5.5285e+00		1.0000e+00
			-0.05		5.5287e+00		1.0000e+00
			0.0		5.5288e+00		1.0000e+00
			0.05		5.5290e+00		1.0000e+00
			0.1		5.5295e+00		1.0000e+00
			0.15		5.5301e+00		1.0000e+00
			0.2		5.5307e+00		1.0000e+00
			0.25		5.5312e+00		1.0000e+00
			0.3		5.5315e+00		1.0000e+00
			0.35		5.5318e+00		1.0000e+00
			0.4		5.5321e+00		1.0000e+00
			0.45		5.5324e+00		1.0000e+00
			0.5		5.5323e+00		1.0000e+00
			0.55		5.5321e+00		1.0000e+00
			0.6		5.5320e+00		1.0000e+00
			0.65		5.5319e+00		1.0000e+00
			0.7		5.5321e+00		1.0000e+00
			0.75		5.5322e+00		1.0000e+00
			0.8		5.5324e+00		1.0000e+00
			0.85		5.5326e+00		1.0000e+00
			0.9		5.5334e+00		1.0000e+00
			0.95		5.5343e+00		1.0000e+00
			1.0		5.5351e+00		1.0000e+00
			1.05		5.5360e+00		1.0000e+00
			1.1		5.5360e+00		1.0000e+00
			1.15		5.5361e+00		1.0000e+00
			1.2		5.5362e+00		1.0000e+00
			1.25		5.5363e+00		1.0000e+00
			1.3		5.5364e+00		1.0000e+00
			1.35		5.5365e+00		1.0000e+00
			1.4		5.5366e+00		1.0000e+00
			1.45		5.5367e+00		1.0000e+00
			1.5		5.5366e+00		1.0000e+00
			1.55		5.5366e+00		1.0000e+00
			1.6		5.5365e+00		1.0000e+00
			1.65		5.5365e+00		1.0000e+00
			1.7		5.5369e+00		1.0000e+00
			1.75		5.5373e+00		1.0000e+00
			1.8		5.5377e+00		1.0000e+00
			1.85		5.5380e+00		1.0000e+00
			1.9		5.5381e+00		1.0000e+00
			1.95		5.5382e+00		1.0000e+00
			2.0		5.5383e+00		1.0000e+00
			2.05		5.5384e+00		1.0000e+00
			2.1		5.5392e+00		1.0000e+00
			2.15		5.5400e+00		1.0000e+00
			2.2		5.5407e+00		1.0000e+00
			2.25		5.5415e+00		1.0000e+00
			2.3		5.5427e+00		1.0000e+00
			2.35		5.5440e+00		1.0000e+00
			2.4		5.5452e+00		1.0000e+00
			2.45		5.5465e+00		1.0000e+00
			2.5		5.5471e+00		1.0000e+00
			2.55		5.5478e+00		1.0000e+00
			2.6		5.5484e+00		1.0000e+00
			2.65		5.5491e+00		1.0000e+00
			2.7		5.5499e+00		1.0000e+00
			2.75		5.5506e+00		1.0000e+00
			2.8		5.5514e+00		1.0000e+00
			2.85		5.5521e+00		1.0000e+00
			2.9		5.5517e+00		1.0000e+00
			2.95		5.5513e+00		1.0000e+00
			3.0		5.5509e+00		1.0000e+00
			3.05		5.5505e+00		1.0000e+00
			3.1		5.5499e+00		1.0000e+00
			3.15		5.5493e+00		1.0000e+00
			3.2		5.5487e+00		1.0000e+00
			3.25		5.5481e+00		1.0000e+00
			3.3		5.5475e+00		1.0000e+00
			3.35		5.5469e+00		1.0000e+00
			3.4		5.5463e+00		1.0000e+00
			3.45		5.5457e+00		1.0000e+00
			3.5		5.5436e+00		1.0000e+00
			3.55		5.5415e+00		1.0000e+00
			3.6		5.5394e+00		1.0000e+00
			3.65		5.5373e+00		1.0000e+00
			3.7		5.5360e+00		1.0000e+00
			3.75		5.5346e+00		1.0000e+00
			3.8		5.5333e+00		1.0000e+00
			3.85		5.5319e+00		1.0000e+00
			3.9		5.5298e+00		1.0000e+00
			3.95		5.5276e+00		1.0000e+00
			4.0		5.5255e+00		1.0000e+00
			4.05		5.5234e+00		1.0000e+00
			4.1		5.5221e+00		1.0000e+00
			4.15		5.5208e+00		1.0000e+00
			4.2		5.5195e+00		1.0000e+00
			4.25		5.5182e+00		1.0000e+00
			4.3		5.5159e+00		1.0000e+00
			4.35		5.5135e+00		1.0000e+00
			4.4		5.5112e+00		1.0000e+00
			4.45		5.5089e+00		1.0000e+00
			4.5		5.5102e+00		1.0000e+00
			4.55		5.5115e+00		1.0000e+00
			4.6		5.5128e+00		1.0000e+00
			4.65		5.5140e+00		1.0000e+00
			4.7		5.5134e+00		1.0000e+00
			4.75		5.5127e+00		1.0000e+00
			4.8		5.5120e+00		1.0000e+00
			4.85		5.5113e+00		1.0000e+00
			4.9		5.5236e+00		1.0000e+00
			4.95		5.5358e+00		1.0000e+00
			5.0		5.5480e+00		1.0000e+00
			5.05		5.5602e+00		1.0000e+00
			5.1		5.6133e+00		1.0000e+00
			5.15		5.6663e+00		1.0000e+00
			5.2		5.7194e+00		1.0000e+00
			5.25		5.7725e+00		1.0000e+00
			5.3		5.9094e+00		1.0000e+00
			5.35		6.0463e+00		1.0000e+00
			5.4		6.1832e+00		1.0000e+00
			5.45		6.3201e+00		1.0000e+00
			5.5		6.3090e+00		1.0000e+00
			5.55		6.2978e+00		1.0000e+00
			5.6		6.2867e+00		1.0000e+00
			5.65		6.2755e+00		1.0000e+00
			5.7		6.1312e+00		1.0000e+00
			5.75		5.9868e+00		1.0000e+00
			5.8		5.8425e+00		1.0000e+00
			5.85		5.6982e+00		1.0000e+00
			5.9		5.6455e+00		1.0000e+00
			5.95		5.5928e+00		1.0000e+00
			6.0		5.5401e+00		1.0000e+00
			6.05		5.4875e+00		1.0000e+00
			6.1		5.4771e+00		1.0000e+00
			6.15		5.4667e+00		1.0000e+00
			6.2		5.4564e+00		1.0000e+00
			6.25		5.4460e+00		1.0000e+00
			6.3		5.4305e+00		1.0000e+00
			6.35		5.4150e+00		1.0000e+00
			6.4		5.3995e+00		1.0000e+00
			6.45		5.3840e+00		1.0000e+00
			6.5		5.3766e+00		1.0000e+00
			6.55		5.3692e+00		1.0000e+00
			6.6		5.3619e+00		1.0000e+00
			6.65		5.3545e+00		1.0000e+00
			6.7		5.3481e+00		1.0000e+00
			6.75		5.3416e+00		1.0000e+00
			6.8		5.3352e+00		1.0000e+00
			6.85		5.3288e+00		1.0000e+00
			6.9		5.3236e+00		1.0000e+00
			6.95		5.3183e+00		1.0000e+00
			7.0		5.3131e+00		1.0000e+00
			7.05		5.3079e+00		1.0000e+00
			7.1		5.3027e+00		1.0000e+00
			7.15		5.2975e+00		1.0000e+00
			7.2		5.2923e+00		1.0000e+00
			7.25		5.2871e+00		1.0000e+00
			7.3		5.2819e+00		1.0000e+00
			7.35		5.2766e+00		1.0000e+00
			7.4		5.2713e+00		1.0000e+00
			7.45		5.2661e+00		1.0000e+00
			7.5		5.2605e+00		1.0000e+00
			7.55		5.2550e+00		1.0000e+00
			7.6		5.2495e+00		1.0000e+00
			7.65		5.2439e+00		1.0000e+00
			7.7		5.2382e+00		1.0000e+00
			7.75		5.2325e+00		1.0000e+00
			7.8		5.2268e+00		1.0000e+00
			7.85		5.2211e+00		1.0000e+00
			7.9		5.2150e+00		1.0000e+00
			7.95		5.2089e+00		1.0000e+00
			8.0		5.2029e+00		1.0000e+00
			8.05		5.1968e+00		1.0000e+00
			8.1		5.1922e+00		1.0000e+00
			8.15		5.1877e+00		1.0000e+00
			8.2		5.1831e+00		1.0000e+00
			8.25		5.1786e+00		1.0000e+00
			8.3		5.1730e+00		1.0000e+00
			8.35		5.1675e+00		1.0000e+00
			8.4		5.1619e+00		1.0000e+00
			8.45		5.1564e+00		1.0000e+00
			8.5		5.1509e+00		1.0000e+00
			8.55		5.1453e+00		1.0000e+00
			8.6		5.1398e+00		1.0000e+00
			8.65		5.1343e+00		1.0000e+00
			8.7		5.1279e+00		1.0000e+00
			8.75		5.1215e+00		1.0000e+00
			8.8		5.1151e+00		1.0000e+00
			8.85		5.1086e+00		1.0000e+00
			8.9		5.1029e+00		1.0000e+00
			8.95		5.0971e+00		1.0000e+00
			9.0		5.0913e+00		1.0000e+00
			9.05		5.0856e+00		1.0000e+00
			9.1		5.0783e+00		1.0000e+00
			9.15		5.0711e+00		1.0000e+00
			9.2		5.0639e+00		1.0000e+00
			9.25		5.0567e+00		1.0000e+00
			9.3		5.0500e+00		1.0000e+00
			9.35		5.0433e+00		1.0000e+00
			9.4		5.0366e+00		1.0000e+00
			9.45		5.0300e+00		1.0000e+00
			9.5		5.0229e+00		1.0000e+00
			9.55		5.0158e+00		1.0000e+00
			9.6		5.0087e+00		1.0000e+00
			9.65		5.0016e+00		1.0000e+00
			9.7		4.9944e+00		1.0000e+00
			9.75		4.9872e+00		1.0000e+00
			9.8		4.9800e+00		1.0000e+00
			9.85		4.9728e+00		1.0000e+00
			9.9		4.9648e+00		1.0000e+00
			9.95		4.9569e+00		1.0000e+00
			10.0		4.9489e+00		1.0000e+00
			10.05		4.9410e+00		1.0000e+00
			10.1		4.9334e+00		1.0000e+00
			10.15		4.9259e+00		1.0000e+00
			10.2		4.9183e+00		1.0000e+00
			10.25		4.9108e+00		1.0000e+00
			10.3		4.9033e+00		1.0000e+00
			10.35		4.8958e+00		1.0000e+00
			10.4		4.8883e+00		1.0000e+00
			10.45		4.8808e+00		1.0000e+00
			10.5		4.8741e+00		1.0000e+00
			10.55		4.8674e+00		1.0000e+00
			10.6		4.8606e+00		1.0000e+00
			10.65		4.8539e+00		1.0000e+00
			10.7		4.8454e+00		1.0000e+00
			10.75		4.8369e+00		1.0000e+00
			10.8		4.8284e+00		1.0000e+00
			10.85		4.8199e+00		1.0000e+00
			10.9		4.8113e+00		1.0000e+00
			10.95		4.8026e+00		1.0000e+00
			11.0		4.7939e+00		1.0000e+00
			11.05		4.7853e+00		1.0000e+00
			11.1		4.7775e+00		1.0000e+00
			11.15		4.7697e+00		1.0000e+00
			11.2		4.7619e+00		1.0000e+00
			11.25		4.7541e+00		1.0000e+00
			11.3		4.7444e+00		1.0000e+00
			11.35		4.7346e+00		1.0000e+00
			11.4		4.7249e+00		1.0000e+00
			11.45		4.7152e+00		1.0000e+00
			11.5		4.7042e+00		1.0000e+00
			11.55		4.6932e+00		1.0000e+00
			11.6		4.6822e+00		1.0000e+00
			11.65		4.6712e+00		1.0000e+00
			11.7		4.6604e+00		1.0000e+00
			11.75		4.6497e+00		1.0000e+00
			11.8		4.6390e+00		1.0000e+00
			11.85		4.6283e+00		1.0000e+00
			11.9		4.6176e+00		1.0000e+00
			11.95		4.6070e+00		1.0000e+00
			12.0		4.5963e+00		1.0000e+00
			12.05		4.5857e+00		1.0000e+00
			12.1		4.5752e+00		1.0000e+00
			12.15		4.5647e+00		1.0000e+00
			12.2		4.5542e+00		1.0000e+00
			12.25		4.5436e+00		1.0000e+00
			12.3		4.5338e+00		1.0000e+00
			12.35		4.5239e+00		1.0000e+00
			12.4		4.5140e+00		1.0000e+00
			12.45		4.5041e+00		1.0000e+00
			12.5		4.4925e+00		1.0000e+00
			12.55		4.4810e+00		1.0000e+00
			12.6		4.4694e+00		1.0000e+00
			12.65		4.4579e+00		1.0000e+00
			12.7		4.4467e+00		1.0000e+00
			12.75		4.4356e+00		1.0000e+00
			12.8		4.4245e+00		1.0000e+00
			12.85		4.4133e+00		1.0000e+00
			12.9		4.4004e+00		1.0000e+00
			12.95		4.3875e+00		1.0000e+00
			13.0		4.3747e+00		1.0000e+00
			13.05		4.3618e+00		1.0000e+00
			13.1		4.3437e+00		1.0000e+00
			13.15		4.3256e+00		1.0000e+00
			13.2		4.3075e+00		1.0000e+00
			13.25		4.2894e+00		1.0000e+00
			13.3		4.2578e+00		1.0000e+00
			13.35		4.2262e+00		1.0000e+00
			13.4		4.1946e+00		1.0000e+00
			13.45		4.1630e+00		1.0000e+00
			13.5		4.0987e+00		1.0000e+00
			13.55		4.0344e+00		1.0000e+00
			13.6		3.9701e+00		1.0000e+00
			13.65		3.9058e+00		1.0000e+00
			13.7		3.7484e+00		1.0000e+00
			13.75		3.5911e+00		1.0000e+00
			13.8		3.4337e+00		1.0000e+00
			13.85		3.2763e+00		1.0000e+00
			13.9		3.0106e+00		1.0000e+00
			13.95		2.7449e+00		1.0000e+00
