BEGIN_SCAN_DATA
	FORMAT=CC-Export V1.9                  
	FILE_CREATION_DATE=
	LAST_MODIFIED=11-Jan-2023 11:56:56
	BEGIN_SCAN  1
		TASK_NAME=RayStation Phantom Profiles & PDDs
		PROGRAM=RayStation
		COMMENT=RayStation Script Export
		MEAS_DATE=11-Jan-2023 11:56:56
		LINAC=RayStation
		MODALITY=X
		ISOCENTER=1000.00
		INPLANE_AXIS=Y
		CROSSPLANE_AXIS=X
		DEPTH_AXIS=Z
		INPLANE_AXIS_DIR=GUN_TARGET
		CROSSPLANE_AXIS_DIR=LEFT_RIGHT
		DEPTH_AXIS_DIR=UP_DOWN
		ENERGY=6.3
		NOMINAL_DMAX=20.00
		SSD=1000.0
		SCD=1000.00
		WEDGE_ANGLE=0.00
		FIELD_INPLANE=200.0
		FIELD_CROSSPLANE=200.0
		FIELD_TYPE=IRREGULAR
		GANTRY=0.00
		GANTRY_UPRIGHT_POSITION=0
		GANTRY_ROTATION=CW
		COLL_ANGLE=0.00
		REF_FIELD_DEPTH=50.00
		REF_FIELD_DEFINED=ISOCENTER
		FIELD_INPLANE=200.0
		FIELD_CROSSPLANE=200.0
		SCAN_CURVETYPE=CROSSPLANE_PROFILE
		SCAN_DEPTH=50.0
		SCAN_OFFAXIS_INPLANE=0.00
		SCAN_OFFAXIS_CROSSPLANE=0.00
		SCAN_ANGLE=0.00
		SCAN_DIAGONAL=NOT_DIAGONAL
		SCAN_DIRECTION=NEGATIVE
		MEAS_MEDIUM=WATER
		MEAS_UNIT=cGy
		INCLINATION_ANGLE=0.00
		PRESSURE=1013.20
		TEMPERATURE=20.00
		NORM_TEMPERATURE=20.00
		CORRECTION_FACTOR=1.0000;
		BEGIN_DATA
			-30.05		0.0000e+00		1.0000e+00
			-30.0		0.0000e+00		1.0000e+00
			-29.95		0.0000e+00		1.0000e+00
			-29.9		0.0000e+00		1.0000e+00
			-29.85		0.0000e+00		1.0000e+00
			-29.8		0.0000e+00		1.0000e+00
			-29.75		0.0000e+00		1.0000e+00
			-29.7		0.0000e+00		1.0000e+00
			-29.65		0.0000e+00		1.0000e+00
			-29.6		0.0000e+00		1.0000e+00
			-29.55		4.4379e-09		1.0000e+00
			-29.5		4.8242e-05		1.0000e+00
			-29.45		9.6480e-05		1.0000e+00
			-29.4		1.4472e-04		1.0000e+00
			-29.35		1.9296e-04		1.0000e+00
			-29.3		2.4283e-04		1.0000e+00
			-29.25		2.9271e-04		1.0000e+00
			-29.2		3.4258e-04		1.0000e+00
			-29.15		3.9246e-04		1.0000e+00
			-29.1		4.0315e-04		1.0000e+00
			-29.05		4.1384e-04		1.0000e+00
			-29.0		4.2453e-04		1.0000e+00
			-28.95		4.3523e-04		1.0000e+00
			-28.9		4.4258e-04		1.0000e+00
			-28.85		4.4994e-04		1.0000e+00
			-28.8		4.5730e-04		1.0000e+00
			-28.75		4.6466e-04		1.0000e+00
			-28.7		4.7545e-04		1.0000e+00
			-28.65		4.8624e-04		1.0000e+00
			-28.6		4.9703e-04		1.0000e+00
			-28.55		5.0782e-04		1.0000e+00
			-28.5		5.2124e-04		1.0000e+00
			-28.45		5.3466e-04		1.0000e+00
			-28.4		5.4808e-04		1.0000e+00
			-28.35		5.6151e-04		1.0000e+00
			-28.3		5.7045e-04		1.0000e+00
			-28.25		5.7940e-04		1.0000e+00
			-28.2		5.8834e-04		1.0000e+00
			-28.15		5.9729e-04		1.0000e+00
			-28.1		6.1429e-04		1.0000e+00
			-28.05		6.3130e-04		1.0000e+00
			-28.0		6.4830e-04		1.0000e+00
			-27.95		6.6530e-04		1.0000e+00
			-27.9		6.8085e-04		1.0000e+00
			-27.85		6.9640e-04		1.0000e+00
			-27.8		7.1194e-04		1.0000e+00
			-27.75		7.2749e-04		1.0000e+00
			-27.7		7.4037e-04		1.0000e+00
			-27.65		7.5326e-04		1.0000e+00
			-27.6		7.6615e-04		1.0000e+00
			-27.55		7.7904e-04		1.0000e+00
			-27.5		8.0820e-04		1.0000e+00
			-27.45		8.3737e-04		1.0000e+00
			-27.4		8.6653e-04		1.0000e+00
			-27.35		8.9570e-04		1.0000e+00
			-27.3		9.3434e-04		1.0000e+00
			-27.25		9.7299e-04		1.0000e+00
			-27.2		1.0116e-03		1.0000e+00
			-27.15		1.0503e-03		1.0000e+00
			-27.1		1.0953e-03		1.0000e+00
			-27.05		1.1402e-03		1.0000e+00
			-27.0		1.1852e-03		1.0000e+00
			-26.95		1.2302e-03		1.0000e+00
			-26.9		1.2894e-03		1.0000e+00
			-26.85		1.3487e-03		1.0000e+00
			-26.8		1.4079e-03		1.0000e+00
			-26.75		1.4672e-03		1.0000e+00
			-26.7		1.5132e-03		1.0000e+00
			-26.65		1.5593e-03		1.0000e+00
			-26.6		1.6054e-03		1.0000e+00
			-26.55		1.6514e-03		1.0000e+00
			-26.5		1.7118e-03		1.0000e+00
			-26.45		1.7723e-03		1.0000e+00
			-26.4		1.8327e-03		1.0000e+00
			-26.35		1.8931e-03		1.0000e+00
			-26.3		1.9698e-03		1.0000e+00
			-26.25		2.0464e-03		1.0000e+00
			-26.2		2.1231e-03		1.0000e+00
			-26.15		2.1998e-03		1.0000e+00
			-26.1		2.2658e-03		1.0000e+00
			-26.05		2.3318e-03		1.0000e+00
			-26.0		2.3977e-03		1.0000e+00
			-25.95		2.4637e-03		1.0000e+00
			-25.9		2.5604e-03		1.0000e+00
			-25.85		2.6572e-03		1.0000e+00
			-25.8		2.7539e-03		1.0000e+00
			-25.75		2.8506e-03		1.0000e+00
			-25.7		2.9394e-03		1.0000e+00
			-25.65		3.0283e-03		1.0000e+00
			-25.6		3.1171e-03		1.0000e+00
			-25.55		3.2059e-03		1.0000e+00
			-25.5		3.2873e-03		1.0000e+00
			-25.45		3.3686e-03		1.0000e+00
			-25.4		3.4499e-03		1.0000e+00
			-25.35		3.5313e-03		1.0000e+00
			-25.3		3.6446e-03		1.0000e+00
			-25.25		3.7580e-03		1.0000e+00
			-25.2		3.8713e-03		1.0000e+00
			-25.15		3.9847e-03		1.0000e+00
			-25.1		4.0506e-03		1.0000e+00
			-25.05		4.1165e-03		1.0000e+00
			-25.0		4.1824e-03		1.0000e+00
			-24.95		4.2483e-03		1.0000e+00
			-24.9		4.3293e-03		1.0000e+00
			-24.85		4.4103e-03		1.0000e+00
			-24.8		4.4913e-03		1.0000e+00
			-24.75		4.5723e-03		1.0000e+00
			-24.7		4.7088e-03		1.0000e+00
			-24.65		4.8452e-03		1.0000e+00
			-24.6		4.9817e-03		1.0000e+00
			-24.55		5.1182e-03		1.0000e+00
			-24.5		5.2017e-03		1.0000e+00
			-24.45		5.2853e-03		1.0000e+00
			-24.4		5.3688e-03		1.0000e+00
			-24.35		5.4524e-03		1.0000e+00
			-24.3		5.6008e-03		1.0000e+00
			-24.25		5.7492e-03		1.0000e+00
			-24.2		5.8975e-03		1.0000e+00
			-24.15		6.0459e-03		1.0000e+00
			-24.1		6.2205e-03		1.0000e+00
			-24.05		6.3950e-03		1.0000e+00
			-24.0		6.5696e-03		1.0000e+00
			-23.95		6.7441e-03		1.0000e+00
			-23.9		6.8611e-03		1.0000e+00
			-23.85		6.9781e-03		1.0000e+00
			-23.8		7.0951e-03		1.0000e+00
			-23.75		7.2121e-03		1.0000e+00
			-23.7		7.4728e-03		1.0000e+00
			-23.65		7.7335e-03		1.0000e+00
			-23.6		7.9943e-03		1.0000e+00
			-23.55		8.2550e-03		1.0000e+00
			-23.5		8.4712e-03		1.0000e+00
			-23.45		8.6875e-03		1.0000e+00
			-23.4		8.9038e-03		1.0000e+00
			-23.35		9.1200e-03		1.0000e+00
			-23.3		9.3166e-03		1.0000e+00
			-23.25		9.5132e-03		1.0000e+00
			-23.2		9.7098e-03		1.0000e+00
			-23.15		9.9065e-03		1.0000e+00
			-23.1		1.0332e-02		1.0000e+00
			-23.05		1.0757e-02		1.0000e+00
			-23.0		1.1183e-02		1.0000e+00
			-22.95		1.1608e-02		1.0000e+00
			-22.9		1.1883e-02		1.0000e+00
			-22.85		1.2158e-02		1.0000e+00
			-22.8		1.2433e-02		1.0000e+00
			-22.75		1.2708e-02		1.0000e+00
			-22.7		1.3071e-02		1.0000e+00
			-22.65		1.3434e-02		1.0000e+00
			-22.6		1.3797e-02		1.0000e+00
			-22.55		1.4160e-02		1.0000e+00
			-22.5		1.4774e-02		1.0000e+00
			-22.45		1.5389e-02		1.0000e+00
			-22.4		1.6004e-02		1.0000e+00
			-22.35		1.6618e-02		1.0000e+00
			-22.3		1.6990e-02		1.0000e+00
			-22.25		1.7362e-02		1.0000e+00
			-22.2		1.7734e-02		1.0000e+00
			-22.15		1.8106e-02		1.0000e+00
			-22.1		1.8813e-02		1.0000e+00
			-22.05		1.9520e-02		1.0000e+00
			-22.0		2.0227e-02		1.0000e+00
			-21.95		2.0934e-02		1.0000e+00
			-21.9		2.1721e-02		1.0000e+00
			-21.85		2.2509e-02		1.0000e+00
			-21.8		2.3296e-02		1.0000e+00
			-21.75		2.4083e-02		1.0000e+00
			-21.7		2.4629e-02		1.0000e+00
			-21.65		2.5174e-02		1.0000e+00
			-21.6		2.5719e-02		1.0000e+00
			-21.55		2.6264e-02		1.0000e+00
			-21.5		2.7518e-02		1.0000e+00
			-21.45		2.8772e-02		1.0000e+00
			-21.4		3.0026e-02		1.0000e+00
			-21.35		3.1280e-02		1.0000e+00
			-21.3		3.2235e-02		1.0000e+00
			-21.25		3.3190e-02		1.0000e+00
			-21.2		3.4144e-02		1.0000e+00
			-21.15		3.5099e-02		1.0000e+00
			-21.1		3.6008e-02		1.0000e+00
			-21.05		3.6916e-02		1.0000e+00
			-21.0		3.7825e-02		1.0000e+00
			-20.95		3.8734e-02		1.0000e+00
			-20.9		4.0660e-02		1.0000e+00
			-20.85		4.2585e-02		1.0000e+00
			-20.8		4.4511e-02		1.0000e+00
			-20.75		4.6443e-02		1.0000e+00
			-20.7		1.2870e-01		1.0000e+00
			-20.65		2.1096e-01		1.0000e+00
			-20.6		2.9322e-01		1.0000e+00
			-20.55		3.7547e-01		1.0000e+00
			-20.5		3.7835e-01		1.0000e+00
			-20.45		3.8123e-01		1.0000e+00
			-20.4		3.8411e-01		1.0000e+00
			-20.35		3.8699e-01		1.0000e+00
			-20.3		3.8987e-01		1.0000e+00
			-20.25		3.9276e-01		1.0000e+00
			-20.2		3.9564e-01		1.0000e+00
			-20.15		3.9852e-01		1.0000e+00
			-20.1		4.0141e-01		1.0000e+00
			-20.05		4.0429e-01		1.0000e+00
			-20.0		4.0718e-01		1.0000e+00
			-19.95		4.1007e-01		1.0000e+00
			-19.9		4.1296e-01		1.0000e+00
			-19.85		4.1585e-01		1.0000e+00
			-19.8		4.1874e-01		1.0000e+00
			-19.75		4.2163e-01		1.0000e+00
			-19.7		4.2561e-01		1.0000e+00
			-19.65		4.2960e-01		1.0000e+00
			-19.6		4.3359e-01		1.0000e+00
			-19.55		4.3758e-01		1.0000e+00
			-19.5		4.4157e-01		1.0000e+00
			-19.45		4.4556e-01		1.0000e+00
			-19.4		4.4955e-01		1.0000e+00
			-19.35		4.5354e-01		1.0000e+00
			-19.3		4.5754e-01		1.0000e+00
			-19.25		4.6153e-01		1.0000e+00
			-19.2		4.6553e-01		1.0000e+00
			-19.15		4.6953e-01		1.0000e+00
			-19.1		4.7353e-01		1.0000e+00
			-19.05		4.7753e-01		1.0000e+00
			-19.0		4.8153e-01		1.0000e+00
			-18.95		4.8553e-01		1.0000e+00
			-18.9		4.9044e-01		1.0000e+00
			-18.85		4.9535e-01		1.0000e+00
			-18.8		5.0026e-01		1.0000e+00
			-18.75		5.0517e-01		1.0000e+00
			-18.7		5.1008e-01		1.0000e+00
			-18.65		5.1500e-01		1.0000e+00
			-18.6		5.1991e-01		1.0000e+00
			-18.55		5.2483e-01		1.0000e+00
			-18.5		5.2975e-01		1.0000e+00
			-18.45		5.3466e-01		1.0000e+00
			-18.4		5.3958e-01		1.0000e+00
			-18.35		5.4450e-01		1.0000e+00
			-18.3		5.4943e-01		1.0000e+00
			-18.25		5.5435e-01		1.0000e+00
			-18.2		5.5928e-01		1.0000e+00
			-18.15		5.6421e-01		1.0000e+00
			-18.1		5.7062e-01		1.0000e+00
			-18.05		5.7704e-01		1.0000e+00
			-18.0		5.8345e-01		1.0000e+00
			-17.95		5.8986e-01		1.0000e+00
			-17.9		5.9628e-01		1.0000e+00
			-17.85		6.0270e-01		1.0000e+00
			-17.8		6.0912e-01		1.0000e+00
			-17.75		6.1554e-01		1.0000e+00
			-17.7		6.2197e-01		1.0000e+00
			-17.65		6.2840e-01		1.0000e+00
			-17.6		6.3483e-01		1.0000e+00
			-17.55		6.4126e-01		1.0000e+00
			-17.5		6.4769e-01		1.0000e+00
			-17.45		6.5413e-01		1.0000e+00
			-17.4		6.6057e-01		1.0000e+00
			-17.35		6.6700e-01		1.0000e+00
			-17.3		6.7499e-01		1.0000e+00
			-17.25		6.8297e-01		1.0000e+00
			-17.2		6.9095e-01		1.0000e+00
			-17.15		6.9894e-01		1.0000e+00
			-17.1		7.0693e-01		1.0000e+00
			-17.05		7.1493e-01		1.0000e+00
			-17.0		7.2293e-01		1.0000e+00
			-16.95		7.3092e-01		1.0000e+00
			-16.9		7.3893e-01		1.0000e+00
			-16.85		7.4693e-01		1.0000e+00
			-16.8		7.5493e-01		1.0000e+00
			-16.75		7.6293e-01		1.0000e+00
			-16.7		7.7095e-01		1.0000e+00
			-16.65		7.7896e-01		1.0000e+00
			-16.6		7.8697e-01		1.0000e+00
			-16.55		7.9498e-01		1.0000e+00
			-16.5		8.0473e-01		1.0000e+00
			-16.45		8.1448e-01		1.0000e+00
			-16.4		8.2423e-01		1.0000e+00
			-16.35		8.3398e-01		1.0000e+00
			-16.3		8.4374e-01		1.0000e+00
			-16.25		8.5350e-01		1.0000e+00
			-16.2		8.6325e-01		1.0000e+00
			-16.15		8.7301e-01		1.0000e+00
			-16.1		8.8278e-01		1.0000e+00
			-16.05		8.9255e-01		1.0000e+00
			-16.0		9.0232e-01		1.0000e+00
			-15.95		9.1209e-01		1.0000e+00
			-15.9		9.2188e-01		1.0000e+00
			-15.85		9.3166e-01		1.0000e+00
			-15.8		9.4144e-01		1.0000e+00
			-15.75		9.5122e-01		1.0000e+00
			-15.7		9.7941e-01		1.0000e+00
			-15.65		1.0076e+00		1.0000e+00
			-15.6		1.0358e+00		1.0000e+00
			-15.55		1.0640e+00		1.0000e+00
			-15.5		1.0922e+00		1.0000e+00
			-15.45		1.1205e+00		1.0000e+00
			-15.4		1.1487e+00		1.0000e+00
			-15.35		1.1769e+00		1.0000e+00
			-15.3		1.2052e+00		1.0000e+00
			-15.25		1.2334e+00		1.0000e+00
			-15.2		1.2617e+00		1.0000e+00
			-15.15		1.2900e+00		1.0000e+00
			-15.1		1.3182e+00		1.0000e+00
			-15.05		1.3465e+00		1.0000e+00
			-15.0		1.3748e+00		1.0000e+00
			-14.95		1.4031e+00		1.0000e+00
			-14.9		1.4242e+00		1.0000e+00
			-14.85		1.4454e+00		1.0000e+00
			-14.8		1.4666e+00		1.0000e+00
			-14.75		1.4877e+00		1.0000e+00
			-14.7		1.5089e+00		1.0000e+00
			-14.65		1.5301e+00		1.0000e+00
			-14.6		1.5513e+00		1.0000e+00
			-14.55		1.5724e+00		1.0000e+00
			-14.5		1.5936e+00		1.0000e+00
			-14.45		1.6148e+00		1.0000e+00
			-14.4		1.6360e+00		1.0000e+00
			-14.35		1.6572e+00		1.0000e+00
			-14.3		1.6784e+00		1.0000e+00
			-14.25		1.6997e+00		1.0000e+00
			-14.2		1.7209e+00		1.0000e+00
			-14.15		1.7421e+00		1.0000e+00
			-14.1		1.7650e+00		1.0000e+00
			-14.05		1.7878e+00		1.0000e+00
			-14.0		1.8107e+00		1.0000e+00
			-13.95		1.8336e+00		1.0000e+00
			-13.9		1.8565e+00		1.0000e+00
			-13.85		1.8794e+00		1.0000e+00
			-13.8		1.9023e+00		1.0000e+00
			-13.75		1.9252e+00		1.0000e+00
			-13.7		1.9481e+00		1.0000e+00
			-13.65		1.9710e+00		1.0000e+00
			-13.6		1.9940e+00		1.0000e+00
			-13.55		2.0169e+00		1.0000e+00
			-13.5		2.0398e+00		1.0000e+00
			-13.45		2.0628e+00		1.0000e+00
			-13.4		2.0857e+00		1.0000e+00
			-13.35		2.1086e+00		1.0000e+00
			-13.3		2.1385e+00		1.0000e+00
			-13.25		2.1684e+00		1.0000e+00
			-13.2		2.1983e+00		1.0000e+00
			-13.15		2.2282e+00		1.0000e+00
			-13.1		2.2582e+00		1.0000e+00
			-13.05		2.2881e+00		1.0000e+00
			-13.0		2.3180e+00		1.0000e+00
			-12.95		2.3480e+00		1.0000e+00
			-12.9		2.3779e+00		1.0000e+00
			-12.85		2.4079e+00		1.0000e+00
			-12.8		2.4378e+00		1.0000e+00
			-12.75		2.4677e+00		1.0000e+00
			-12.7		2.4977e+00		1.0000e+00
			-12.65		2.5277e+00		1.0000e+00
			-12.6		2.5577e+00		1.0000e+00
			-12.55		2.5877e+00		1.0000e+00
			-12.5		2.6271e+00		1.0000e+00
			-12.45		2.6665e+00		1.0000e+00
			-12.4		2.7060e+00		1.0000e+00
			-12.35		2.7454e+00		1.0000e+00
			-12.3		2.7849e+00		1.0000e+00
			-12.25		2.8244e+00		1.0000e+00
			-12.2		2.8639e+00		1.0000e+00
			-12.15		2.9033e+00		1.0000e+00
			-12.1		2.9428e+00		1.0000e+00
			-12.05		2.9823e+00		1.0000e+00
			-12.0		3.0219e+00		1.0000e+00
			-11.95		3.0614e+00		1.0000e+00
			-11.9		3.1009e+00		1.0000e+00
			-11.85		3.1404e+00		1.0000e+00
			-11.8		3.1799e+00		1.0000e+00
			-11.75		3.2195e+00		1.0000e+00
			-11.7		3.3233e+00		1.0000e+00
			-11.65		3.4271e+00		1.0000e+00
			-11.6		3.5309e+00		1.0000e+00
			-11.55		3.6347e+00		1.0000e+00
			-11.5		3.7386e+00		1.0000e+00
			-11.45		3.8425e+00		1.0000e+00
			-11.4		3.9463e+00		1.0000e+00
			-11.35		4.0502e+00		1.0000e+00
			-11.3		4.1504e+00		1.0000e+00
			-11.25		4.2505e+00		1.0000e+00
			-11.2		4.3507e+00		1.0000e+00
			-11.15		4.4508e+00		1.0000e+00
			-11.1		4.5507e+00		1.0000e+00
			-11.05		4.6505e+00		1.0000e+00
			-11.0		4.7504e+00		1.0000e+00
			-10.95		4.8503e+00		1.0000e+00
			-10.9		5.4770e+00		1.0000e+00
			-10.85		6.1037e+00		1.0000e+00
			-10.8		6.7305e+00		1.0000e+00
			-10.75		7.3574e+00		1.0000e+00
			-10.7		9.9248e+00		1.0000e+00
			-10.65		1.2492e+01		1.0000e+00
			-10.6		1.5060e+01		1.0000e+00
			-10.55		1.7627e+01		1.0000e+00
			-10.5		1.9835e+01		1.0000e+00
			-10.45		2.2044e+01		1.0000e+00
			-10.4		2.4252e+01		1.0000e+00
			-10.35		2.6460e+01		1.0000e+00
			-10.3		2.7136e+01		1.0000e+00
			-10.25		2.7812e+01		1.0000e+00
			-10.2		2.8489e+01		1.0000e+00
			-10.15		2.9165e+01		1.0000e+00
			-10.1		2.9410e+01		1.0000e+00
			-10.05		2.9656e+01		1.0000e+00
			-10.0		2.9901e+01		1.0000e+00
			-9.95		3.0147e+01		1.0000e+00
			-9.9		3.0278e+01		1.0000e+00
			-9.85		3.0409e+01		1.0000e+00
			-9.8		3.0541e+01		1.0000e+00
			-9.75		3.0672e+01		1.0000e+00
			-9.7		3.0755e+01		1.0000e+00
			-9.65		3.0838e+01		1.0000e+00
			-9.6		3.0921e+01		1.0000e+00
			-9.55		3.1004e+01		1.0000e+00
			-9.5		3.1064e+01		1.0000e+00
			-9.45		3.1124e+01		1.0000e+00
			-9.4		3.1184e+01		1.0000e+00
			-9.35		3.1244e+01		1.0000e+00
			-9.3		3.1291e+01		1.0000e+00
			-9.25		3.1338e+01		1.0000e+00
			-9.2		3.1386e+01		1.0000e+00
			-9.15		3.1433e+01		1.0000e+00
			-9.1		3.1470e+01		1.0000e+00
			-9.05		3.1508e+01		1.0000e+00
			-9.0		3.1545e+01		1.0000e+00
			-8.95		3.1583e+01		1.0000e+00
			-8.9		3.1610e+01		1.0000e+00
			-8.85		3.1637e+01		1.0000e+00
			-8.8		3.1664e+01		1.0000e+00
			-8.75		3.1691e+01		1.0000e+00
			-8.7		3.1722e+01		1.0000e+00
			-8.65		3.1753e+01		1.0000e+00
			-8.6		3.1784e+01		1.0000e+00
			-8.55		3.1815e+01		1.0000e+00
			-8.5		3.1839e+01		1.0000e+00
			-8.45		3.1863e+01		1.0000e+00
			-8.4		3.1887e+01		1.0000e+00
			-8.35		3.1911e+01		1.0000e+00
			-8.3		3.1933e+01		1.0000e+00
			-8.25		3.1954e+01		1.0000e+00
			-8.2		3.1975e+01		1.0000e+00
			-8.15		3.1997e+01		1.0000e+00
			-8.1		3.2015e+01		1.0000e+00
			-8.05		3.2034e+01		1.0000e+00
			-8.0		3.2052e+01		1.0000e+00
			-7.95		3.2071e+01		1.0000e+00
			-7.9		3.2085e+01		1.0000e+00
			-7.85		3.2099e+01		1.0000e+00
			-7.8		3.2113e+01		1.0000e+00
			-7.75		3.2127e+01		1.0000e+00
			-7.7		3.2145e+01		1.0000e+00
			-7.65		3.2163e+01		1.0000e+00
			-7.6		3.2181e+01		1.0000e+00
			-7.55		3.2199e+01		1.0000e+00
			-7.5		3.2210e+01		1.0000e+00
			-7.45		3.2221e+01		1.0000e+00
			-7.4		3.2232e+01		1.0000e+00
			-7.35		3.2244e+01		1.0000e+00
			-7.3		3.2261e+01		1.0000e+00
			-7.25		3.2278e+01		1.0000e+00
			-7.2		3.2294e+01		1.0000e+00
			-7.15		3.2311e+01		1.0000e+00
			-7.1		3.2321e+01		1.0000e+00
			-7.05		3.2330e+01		1.0000e+00
			-7.0		3.2339e+01		1.0000e+00
			-6.95		3.2348e+01		1.0000e+00
			-6.9		3.2361e+01		1.0000e+00
			-6.85		3.2373e+01		1.0000e+00
			-6.8		3.2385e+01		1.0000e+00
			-6.75		3.2397e+01		1.0000e+00
			-6.7		3.2405e+01		1.0000e+00
			-6.65		3.2413e+01		1.0000e+00
			-6.6		3.2421e+01		1.0000e+00
			-6.55		3.2429e+01		1.0000e+00
			-6.5		3.2439e+01		1.0000e+00
			-6.45		3.2449e+01		1.0000e+00
			-6.4		3.2459e+01		1.0000e+00
			-6.35		3.2469e+01		1.0000e+00
			-6.3		3.2481e+01		1.0000e+00
			-6.25		3.2492e+01		1.0000e+00
			-6.2		3.2504e+01		1.0000e+00
			-6.15		3.2515e+01		1.0000e+00
			-6.1		3.2523e+01		1.0000e+00
			-6.05		3.2530e+01		1.0000e+00
			-6.0		3.2538e+01		1.0000e+00
			-5.95		3.2546e+01		1.0000e+00
			-5.9		3.2550e+01		1.0000e+00
			-5.85		3.2554e+01		1.0000e+00
			-5.8		3.2557e+01		1.0000e+00
			-5.75		3.2561e+01		1.0000e+00
			-5.7		3.2572e+01		1.0000e+00
			-5.65		3.2582e+01		1.0000e+00
			-5.6		3.2593e+01		1.0000e+00
			-5.55		3.2603e+01		1.0000e+00
			-5.5		3.2606e+01		1.0000e+00
			-5.45		3.2609e+01		1.0000e+00
			-5.4		3.2612e+01		1.0000e+00
			-5.35		3.2615e+01		1.0000e+00
			-5.3		3.2622e+01		1.0000e+00
			-5.25		3.2628e+01		1.0000e+00
			-5.2		3.2635e+01		1.0000e+00
			-5.15		3.2641e+01		1.0000e+00
			-5.1		3.2643e+01		1.0000e+00
			-5.05		3.2644e+01		1.0000e+00
			-5.0		3.2646e+01		1.0000e+00
			-4.95		3.2647e+01		1.0000e+00
			-4.9		3.2653e+01		1.0000e+00
			-4.85		3.2659e+01		1.0000e+00
			-4.8		3.2665e+01		1.0000e+00
			-4.75		3.2671e+01		1.0000e+00
			-4.7		3.2676e+01		1.0000e+00
			-4.65		3.2682e+01		1.0000e+00
			-4.6		3.2688e+01		1.0000e+00
			-4.55		3.2694e+01		1.0000e+00
			-4.5		3.2693e+01		1.0000e+00
			-4.45		3.2693e+01		1.0000e+00
			-4.4		3.2692e+01		1.0000e+00
			-4.35		3.2692e+01		1.0000e+00
			-4.3		3.2695e+01		1.0000e+00
			-4.25		3.2698e+01		1.0000e+00
			-4.2		3.2701e+01		1.0000e+00
			-4.15		3.2704e+01		1.0000e+00
			-4.1		3.2702e+01		1.0000e+00
			-4.05		3.2699e+01		1.0000e+00
			-4.0		3.2696e+01		1.0000e+00
			-3.95		3.2693e+01		1.0000e+00
			-3.9		3.2694e+01		1.0000e+00
			-3.85		3.2695e+01		1.0000e+00
			-3.8		3.2697e+01		1.0000e+00
			-3.75		3.2698e+01		1.0000e+00
			-3.7		3.2699e+01		1.0000e+00
			-3.65		3.2701e+01		1.0000e+00
			-3.6		3.2703e+01		1.0000e+00
			-3.55		3.2705e+01		1.0000e+00
			-3.5		3.2706e+01		1.0000e+00
			-3.45		3.2708e+01		1.0000e+00
			-3.4		3.2709e+01		1.0000e+00
			-3.35		3.2711e+01		1.0000e+00
			-3.3		3.2710e+01		1.0000e+00
			-3.25		3.2710e+01		1.0000e+00
			-3.2		3.2709e+01		1.0000e+00
			-3.15		3.2709e+01		1.0000e+00
			-3.1		3.2703e+01		1.0000e+00
			-3.05		3.2698e+01		1.0000e+00
			-3.0		3.2692e+01		1.0000e+00
			-2.95		3.2687e+01		1.0000e+00
			-2.9		3.2688e+01		1.0000e+00
			-2.85		3.2688e+01		1.0000e+00
			-2.8		3.2689e+01		1.0000e+00
			-2.75		3.2690e+01		1.0000e+00
			-2.7		3.2684e+01		1.0000e+00
			-2.65		3.2679e+01		1.0000e+00
			-2.6		3.2674e+01		1.0000e+00
			-2.55		3.2668e+01		1.0000e+00
			-2.5		3.2667e+01		1.0000e+00
			-2.45		3.2666e+01		1.0000e+00
			-2.4		3.2665e+01		1.0000e+00
			-2.35		3.2663e+01		1.0000e+00
			-2.3		3.2664e+01		1.0000e+00
			-2.25		3.2664e+01		1.0000e+00
			-2.2		3.2664e+01		1.0000e+00
			-2.15		3.2664e+01		1.0000e+00
			-2.1		3.2663e+01		1.0000e+00
			-2.05		3.2661e+01		1.0000e+00
			-2.0		3.2660e+01		1.0000e+00
			-1.95		3.2659e+01		1.0000e+00
			-1.9		3.2651e+01		1.0000e+00
			-1.85		3.2644e+01		1.0000e+00
			-1.8		3.2637e+01		1.0000e+00
			-1.75		3.2629e+01		1.0000e+00
			-1.7		3.2628e+01		1.0000e+00
			-1.65		3.2626e+01		1.0000e+00
			-1.6		3.2624e+01		1.0000e+00
			-1.55		3.2622e+01		1.0000e+00
			-1.5		3.2615e+01		1.0000e+00
			-1.45		3.2607e+01		1.0000e+00
			-1.4		3.2599e+01		1.0000e+00
			-1.35		3.2591e+01		1.0000e+00
			-1.3		3.2588e+01		1.0000e+00
			-1.25		3.2585e+01		1.0000e+00
			-1.2		3.2581e+01		1.0000e+00
			-1.15		3.2578e+01		1.0000e+00
			-1.1		3.2575e+01		1.0000e+00
			-1.05		3.2573e+01		1.0000e+00
			-1.0		3.2571e+01		1.0000e+00
			-0.95		3.2568e+01		1.0000e+00
			-0.9		3.2559e+01		1.0000e+00
			-0.85		3.2550e+01		1.0000e+00
			-0.8		3.2541e+01		1.0000e+00
			-0.75		3.2532e+01		1.0000e+00
			-0.7		3.2529e+01		1.0000e+00
			-0.65		3.2526e+01		1.0000e+00
			-0.6		3.2523e+01		1.0000e+00
			-0.55		3.2521e+01		1.0000e+00
			-0.5		3.2511e+01		1.0000e+00
			-0.45		3.2502e+01		1.0000e+00
			-0.4		3.2493e+01		1.0000e+00
			-0.35		3.2484e+01		1.0000e+00
			-0.3		3.2480e+01		1.0000e+00
			-0.25		3.2475e+01		1.0000e+00
			-0.2		3.2471e+01		1.0000e+00
			-0.15		3.2467e+01		1.0000e+00
			-0.1		3.2467e+01		1.0000e+00
			-0.05		3.2468e+01		1.0000e+00
			0.0		3.2468e+01		1.0000e+00
			0.05		3.2469e+01		1.0000e+00
			0.1		3.2473e+01		1.0000e+00
			0.15		3.2478e+01		1.0000e+00
			0.2		3.2482e+01		1.0000e+00
			0.25		3.2487e+01		1.0000e+00
			0.3		3.2496e+01		1.0000e+00
			0.35		3.2506e+01		1.0000e+00
			0.4		3.2515e+01		1.0000e+00
			0.45		3.2525e+01		1.0000e+00
			0.5		3.2530e+01		1.0000e+00
			0.55		3.2534e+01		1.0000e+00
			0.6		3.2539e+01		1.0000e+00
			0.65		3.2543e+01		1.0000e+00
			0.7		3.2555e+01		1.0000e+00
			0.75		3.2566e+01		1.0000e+00
			0.8		3.2577e+01		1.0000e+00
			0.85		3.2588e+01		1.0000e+00
			0.9		3.2592e+01		1.0000e+00
			0.95		3.2596e+01		1.0000e+00
			1.0		3.2600e+01		1.0000e+00
			1.05		3.2604e+01		1.0000e+00
			1.1		3.2608e+01		1.0000e+00
			1.15		3.2613e+01		1.0000e+00
			1.2		3.2617e+01		1.0000e+00
			1.25		3.2621e+01		1.0000e+00
			1.3		3.2630e+01		1.0000e+00
			1.35		3.2638e+01		1.0000e+00
			1.4		3.2646e+01		1.0000e+00
			1.45		3.2654e+01		1.0000e+00
			1.5		3.2657e+01		1.0000e+00
			1.55		3.2660e+01		1.0000e+00
			1.6		3.2663e+01		1.0000e+00
			1.65		3.2666e+01		1.0000e+00
			1.7		3.2675e+01		1.0000e+00
			1.75		3.2683e+01		1.0000e+00
			1.8		3.2692e+01		1.0000e+00
			1.85		3.2700e+01		1.0000e+00
			1.9		3.2705e+01		1.0000e+00
			1.95		3.2710e+01		1.0000e+00
			2.0		3.2715e+01		1.0000e+00
			2.05		3.2720e+01		1.0000e+00
			2.1		3.2724e+01		1.0000e+00
			2.15		3.2729e+01		1.0000e+00
			2.2		3.2733e+01		1.0000e+00
			2.25		3.2738e+01		1.0000e+00
			2.3		3.2741e+01		1.0000e+00
			2.35		3.2745e+01		1.0000e+00
			2.4		3.2749e+01		1.0000e+00
			2.45		3.2752e+01		1.0000e+00
			2.5		3.2759e+01		1.0000e+00
			2.55		3.2766e+01		1.0000e+00
			2.6		3.2772e+01		1.0000e+00
			2.65		3.2779e+01		1.0000e+00
			2.7		3.2781e+01		1.0000e+00
			2.75		3.2782e+01		1.0000e+00
			2.8		3.2784e+01		1.0000e+00
			2.85		3.2786e+01		1.0000e+00
			2.9		3.2799e+01		1.0000e+00
			2.95		3.2813e+01		1.0000e+00
			3.0		3.2826e+01		1.0000e+00
			3.05		3.2840e+01		1.0000e+00
			3.1		3.2852e+01		1.0000e+00
			3.15		3.2865e+01		1.0000e+00
			3.2		3.2877e+01		1.0000e+00
			3.25		3.2890e+01		1.0000e+00
			3.3		3.2916e+01		1.0000e+00
			3.35		3.2942e+01		1.0000e+00
			3.4		3.2968e+01		1.0000e+00
			3.45		3.2993e+01		1.0000e+00
			3.5		3.3065e+01		1.0000e+00
			3.55		3.3136e+01		1.0000e+00
			3.6		3.3208e+01		1.0000e+00
			3.65		3.3280e+01		1.0000e+00
			3.7		3.3550e+01		1.0000e+00
			3.75		3.3820e+01		1.0000e+00
			3.8		3.4090e+01		1.0000e+00
			3.85		3.4361e+01		1.0000e+00
			3.9		3.5684e+01		1.0000e+00
			3.95		3.7006e+01		1.0000e+00
			4.0		3.8329e+01		1.0000e+00
			4.05		3.9652e+01		1.0000e+00
			4.1		3.9595e+01		1.0000e+00
			4.15		3.9538e+01		1.0000e+00
			4.2		3.9480e+01		1.0000e+00
			4.25		3.9423e+01		1.0000e+00
			4.3		3.8100e+01		1.0000e+00
			4.35		3.6777e+01		1.0000e+00
			4.4		3.5455e+01		1.0000e+00
			4.45		3.4132e+01		1.0000e+00
			4.5		3.3883e+01		1.0000e+00
			4.55		3.3634e+01		1.0000e+00
			4.6		3.3385e+01		1.0000e+00
			4.65		3.3136e+01		1.0000e+00
			4.7		3.3073e+01		1.0000e+00
			4.75		3.3009e+01		1.0000e+00
			4.8		3.2946e+01		1.0000e+00
			4.85		3.2883e+01		1.0000e+00
			4.9		3.2862e+01		1.0000e+00
			4.95		3.2841e+01		1.0000e+00
			5.0		3.2820e+01		1.0000e+00
			5.05		3.2799e+01		1.0000e+00
			5.1		3.2781e+01		1.0000e+00
			5.15		3.2764e+01		1.0000e+00
			5.2		3.2746e+01		1.0000e+00
			5.25		3.2728e+01		1.0000e+00
			5.3		3.2724e+01		1.0000e+00
			5.35		3.2720e+01		1.0000e+00
			5.4		3.2715e+01		1.0000e+00
			5.45		3.2711e+01		1.0000e+00
			5.5		3.2699e+01		1.0000e+00
			5.55		3.2686e+01		1.0000e+00
			5.6		3.2674e+01		1.0000e+00
			5.65		3.2662e+01		1.0000e+00
			5.7		3.2654e+01		1.0000e+00
			5.75		3.2646e+01		1.0000e+00
			5.8		3.2638e+01		1.0000e+00
			5.85		3.2630e+01		1.0000e+00
			5.9		3.2614e+01		1.0000e+00
			5.95		3.2599e+01		1.0000e+00
			6.0		3.2584e+01		1.0000e+00
			6.05		3.2569e+01		1.0000e+00
			6.1		3.2562e+01		1.0000e+00
			6.15		3.2555e+01		1.0000e+00
			6.2		3.2548e+01		1.0000e+00
			6.25		3.2541e+01		1.0000e+00
			6.3		3.2529e+01		1.0000e+00
			6.35		3.2518e+01		1.0000e+00
			6.4		3.2506e+01		1.0000e+00
			6.45		3.2494e+01		1.0000e+00
			6.5		3.2484e+01		1.0000e+00
			6.55		3.2474e+01		1.0000e+00
			6.6		3.2465e+01		1.0000e+00
			6.65		3.2455e+01		1.0000e+00
			6.7		3.2442e+01		1.0000e+00
			6.75		3.2430e+01		1.0000e+00
			6.8		3.2417e+01		1.0000e+00
			6.85		3.2404e+01		1.0000e+00
			6.9		3.2394e+01		1.0000e+00
			6.95		3.2383e+01		1.0000e+00
			7.0		3.2373e+01		1.0000e+00
			7.05		3.2362e+01		1.0000e+00
			7.1		3.2345e+01		1.0000e+00
			7.15		3.2327e+01		1.0000e+00
			7.2		3.2310e+01		1.0000e+00
			7.25		3.2293e+01		1.0000e+00
			7.3		3.2281e+01		1.0000e+00
			7.35		3.2269e+01		1.0000e+00
			7.4		3.2258e+01		1.0000e+00
			7.45		3.2246e+01		1.0000e+00
			7.5		3.2227e+01		1.0000e+00
			7.55		3.2207e+01		1.0000e+00
			7.6		3.2188e+01		1.0000e+00
			7.65		3.2168e+01		1.0000e+00
			7.7		3.2154e+01		1.0000e+00
			7.75		3.2139e+01		1.0000e+00
			7.8		3.2125e+01		1.0000e+00
			7.85		3.2111e+01		1.0000e+00
			7.9		3.2092e+01		1.0000e+00
			7.95		3.2073e+01		1.0000e+00
			8.0		3.2055e+01		1.0000e+00
			8.05		3.2036e+01		1.0000e+00
			8.1		3.2014e+01		1.0000e+00
			8.15		3.1993e+01		1.0000e+00
			8.2		3.1971e+01		1.0000e+00
			8.25		3.1949e+01		1.0000e+00
			8.3		3.1925e+01		1.0000e+00
			8.35		3.1901e+01		1.0000e+00
			8.4		3.1877e+01		1.0000e+00
			8.45		3.1853e+01		1.0000e+00
			8.5		3.1822e+01		1.0000e+00
			8.55		3.1790e+01		1.0000e+00
			8.6		3.1758e+01		1.0000e+00
			8.65		3.1727e+01		1.0000e+00
			8.7		3.1700e+01		1.0000e+00
			8.75		3.1673e+01		1.0000e+00
			8.8		3.1646e+01		1.0000e+00
			8.85		3.1620e+01		1.0000e+00
			8.9		3.1581e+01		1.0000e+00
			8.95		3.1543e+01		1.0000e+00
			9.0		3.1505e+01		1.0000e+00
			9.05		3.1467e+01		1.0000e+00
			9.1		3.1420e+01		1.0000e+00
			9.15		3.1374e+01		1.0000e+00
			9.2		3.1327e+01		1.0000e+00
			9.25		3.1281e+01		1.0000e+00
			9.3		3.1219e+01		1.0000e+00
			9.35		3.1158e+01		1.0000e+00
			9.4		3.1096e+01		1.0000e+00
			9.45		3.1034e+01		1.0000e+00
			9.5		3.0949e+01		1.0000e+00
			9.55		3.0865e+01		1.0000e+00
			9.6		3.0780e+01		1.0000e+00
			9.65		3.0696e+01		1.0000e+00
			9.7		3.0565e+01		1.0000e+00
			9.75		3.0434e+01		1.0000e+00
			9.8		3.0303e+01		1.0000e+00
			9.85		3.0173e+01		1.0000e+00
			9.9		2.9928e+01		1.0000e+00
			9.95		2.9684e+01		1.0000e+00
			10.0		2.9439e+01		1.0000e+00
			10.05		2.9194e+01		1.0000e+00
			10.1		2.8516e+01		1.0000e+00
			10.15		2.7837e+01		1.0000e+00
			10.2		2.7158e+01		1.0000e+00
			10.25		2.6480e+01		1.0000e+00
			10.3		2.4270e+01		1.0000e+00
			10.35		2.2061e+01		1.0000e+00
			10.4		1.9852e+01		1.0000e+00
			10.45		1.7643e+01		1.0000e+00
			10.5		1.5075e+01		1.0000e+00
			10.55		1.2508e+01		1.0000e+00
			10.6		9.9410e+00		1.0000e+00
			10.65		7.3740e+00		1.0000e+00
			10.7		6.7471e+00		1.0000e+00
			10.75		6.1202e+00		1.0000e+00
			10.8		5.4933e+00		1.0000e+00
			10.85		4.8665e+00		1.0000e+00
			10.9		4.6758e+00		1.0000e+00
			10.95		4.4851e+00		1.0000e+00
			11.0		4.2945e+00		1.0000e+00
			11.05		4.1038e+00		1.0000e+00
			11.1		4.0235e+00		1.0000e+00
			11.15		3.9432e+00		1.0000e+00
			11.2		3.8629e+00		1.0000e+00
			11.25		3.7825e+00		1.0000e+00
			11.3		3.7023e+00		1.0000e+00
			11.35		3.6220e+00		1.0000e+00
			11.4		3.5418e+00		1.0000e+00
			11.45		3.4615e+00		1.0000e+00
			11.5		3.4157e+00		1.0000e+00
			11.55		3.3700e+00		1.0000e+00
			11.6		3.3242e+00		1.0000e+00
			11.65		3.2784e+00		1.0000e+00
			11.7		3.2327e+00		1.0000e+00
			11.75		3.1869e+00		1.0000e+00
			11.8		3.1412e+00		1.0000e+00
			11.85		3.0955e+00		1.0000e+00
			11.9		3.0497e+00		1.0000e+00
			11.95		3.0040e+00		1.0000e+00
			12.0		2.9583e+00		1.0000e+00
			12.05		2.9126e+00		1.0000e+00
			12.1		2.8669e+00		1.0000e+00
			12.15		2.8213e+00		1.0000e+00
			12.2		2.7756e+00		1.0000e+00
			12.25		2.7299e+00		1.0000e+00
			12.3		2.6985e+00		1.0000e+00
			12.35		2.6671e+00		1.0000e+00
			12.4		2.6358e+00		1.0000e+00
			12.45		2.6044e+00		1.0000e+00
			12.5		2.5730e+00		1.0000e+00
			12.55		2.5416e+00		1.0000e+00
			12.6		2.5103e+00		1.0000e+00
			12.65		2.4789e+00		1.0000e+00
			12.7		2.4475e+00		1.0000e+00
			12.75		2.4162e+00		1.0000e+00
			12.8		2.3849e+00		1.0000e+00
			12.85		2.3535e+00		1.0000e+00
			12.9		2.3222e+00		1.0000e+00
			12.95		2.2909e+00		1.0000e+00
			13.0		2.2596e+00		1.0000e+00
			13.05		2.2282e+00		1.0000e+00
			13.1		2.2034e+00		1.0000e+00
			13.15		2.1786e+00		1.0000e+00
			13.2		2.1538e+00		1.0000e+00
			13.25		2.1290e+00		1.0000e+00
			13.3		2.1042e+00		1.0000e+00
			13.35		2.0794e+00		1.0000e+00
			13.4		2.0547e+00		1.0000e+00
			13.45		2.0299e+00		1.0000e+00
			13.5		2.0051e+00		1.0000e+00
			13.55		1.9803e+00		1.0000e+00
			13.6		1.9556e+00		1.0000e+00
			13.65		1.9308e+00		1.0000e+00
			13.7		1.9061e+00		1.0000e+00
			13.75		1.8813e+00		1.0000e+00
			13.8		1.8566e+00		1.0000e+00
			13.85		1.8318e+00		1.0000e+00
			13.9		1.8105e+00		1.0000e+00
			13.95		1.7892e+00		1.0000e+00
