BEGIN_SCAN_DATA
	FORMAT=CC-Export V1.9                  
	FILE_CREATION_DATE=
	LAST_MODIFIED=11-Jan-2023 10:50:22
	BEGIN_SCAN  1
		TASK_NAME=RayStation Phantom Profiles & PDDs
		PROGRAM=RayStation
		COMMENT=RayStation Script Export
		MEAS_DATE=11-Jan-2023 10:50:22
		LINAC=RayStation
		MODALITY=X
		ISOCENTER=1000.00
		INPLANE_AXIS=Y
		CROSSPLANE_AXIS=X
		DEPTH_AXIS=Z
		INPLANE_AXIS_DIR=GUN_TARGET
		CROSSPLANE_AXIS_DIR=LEFT_RIGHT
		DEPTH_AXIS_DIR=UP_DOWN
		ENERGY=6.3
		NOMINAL_DMAX=20.00
		SSD=1000.0
		SCD=1000.00
		WEDGE_ANGLE=0.00
		FIELD_INPLANE=200.0
		FIELD_CROSSPLANE=200.0
		FIELD_TYPE=IRREGULAR
		GANTRY=0.00
		GANTRY_UPRIGHT_POSITION=0
		GANTRY_ROTATION=CW
		COLL_ANGLE=0.00
		REF_FIELD_DEPTH=50.00
		REF_FIELD_DEFINED=ISOCENTER
		FIELD_INPLANE=200.0
		FIELD_CROSSPLANE=200.0
		SCAN_CURVETYPE=INPLANE_PROFILE
		SCAN_DEPTH=20.0
		SCAN_OFFAXIS_INPLANE=0.00
		SCAN_OFFAXIS_CROSSPLANE=0.00
		SCAN_ANGLE=0.00
		SCAN_DIAGONAL=NOT_DIAGONAL
		SCAN_DIRECTION=NEGATIVE
		MEAS_MEDIUM=WATER
		MEAS_UNIT=cGy
		INCLINATION_ANGLE=0.00
		PRESSURE=1013.20
		TEMPERATURE=20.00
		NORM_TEMPERATURE=20.00
		CORRECTION_FACTOR=1.0000;
		BEGIN_DATA
			-5.0		4.4582e-03		1.0000e+00
			-4.95		4.4662e-03		1.0000e+00
			-4.9		4.4742e-03		1.0000e+00
			-4.85		4.4822e-03		1.0000e+00
			-4.8		4.4902e-03		1.0000e+00
			-4.75		4.5726e-03		1.0000e+00
			-4.7		4.6551e-03		1.0000e+00
			-4.65		4.7375e-03		1.0000e+00
			-4.6		4.8200e-03		1.0000e+00
			-4.55		4.8374e-03		1.0000e+00
			-4.5		4.8548e-03		1.0000e+00
			-4.45		4.8722e-03		1.0000e+00
			-4.4		4.8896e-03		1.0000e+00
			-4.35		4.9832e-03		1.0000e+00
			-4.3		5.0768e-03		1.0000e+00
			-4.25		5.1705e-03		1.0000e+00
			-4.2		5.2641e-03		1.0000e+00
			-4.15		5.2852e-03		1.0000e+00
			-4.1		5.3062e-03		1.0000e+00
			-4.05		5.3273e-03		1.0000e+00
			-4.0		5.3484e-03		1.0000e+00
			-3.95		5.4566e-03		1.0000e+00
			-3.9		5.5647e-03		1.0000e+00
			-3.85		5.6729e-03		1.0000e+00
			-3.8		5.7810e-03		1.0000e+00
			-3.75		5.8068e-03		1.0000e+00
			-3.7		5.8326e-03		1.0000e+00
			-3.65		5.8584e-03		1.0000e+00
			-3.6		5.8842e-03		1.0000e+00
			-3.55		6.0082e-03		1.0000e+00
			-3.5		6.1322e-03		1.0000e+00
			-3.45		6.2562e-03		1.0000e+00
			-3.4		6.3802e-03		1.0000e+00
			-3.35		6.4144e-03		1.0000e+00
			-3.3		6.4485e-03		1.0000e+00
			-3.25		6.4826e-03		1.0000e+00
			-3.2		6.5168e-03		1.0000e+00
			-3.15		6.6597e-03		1.0000e+00
			-3.1		6.8027e-03		1.0000e+00
			-3.05		6.9456e-03		1.0000e+00
			-3.0		7.0886e-03		1.0000e+00
			-2.95		7.1299e-03		1.0000e+00
			-2.9		7.1713e-03		1.0000e+00
			-2.85		7.2126e-03		1.0000e+00
			-2.8		7.2539e-03		1.0000e+00
			-2.75		7.4210e-03		1.0000e+00
			-2.7		7.5882e-03		1.0000e+00
			-2.65		7.7553e-03		1.0000e+00
			-2.6		7.9224e-03		1.0000e+00
			-2.55		7.9755e-03		1.0000e+00
			-2.5		8.0285e-03		1.0000e+00
			-2.45		8.0816e-03		1.0000e+00
			-2.4		8.1347e-03		1.0000e+00
			-2.35		8.3327e-03		1.0000e+00
			-2.3		8.5308e-03		1.0000e+00
			-2.25		8.7289e-03		1.0000e+00
			-2.2		8.9270e-03		1.0000e+00
			-2.15		8.9918e-03		1.0000e+00
			-2.1		9.0566e-03		1.0000e+00
			-2.05		9.1214e-03		1.0000e+00
			-2.0		9.1862e-03		1.0000e+00
			-1.95		9.4248e-03		1.0000e+00
			-1.9		9.6633e-03		1.0000e+00
			-1.85		9.9018e-03		1.0000e+00
			-1.8		1.0140e-02		1.0000e+00
			-1.75		1.0221e-02		1.0000e+00
			-1.7		1.0302e-02		1.0000e+00
			-1.65		1.0382e-02		1.0000e+00
			-1.6		1.0463e-02		1.0000e+00
			-1.55		1.0743e-02		1.0000e+00
			-1.5		1.1023e-02		1.0000e+00
			-1.45		1.1304e-02		1.0000e+00
			-1.4		1.1584e-02		1.0000e+00
			-1.35		1.1693e-02		1.0000e+00
			-1.3		1.1802e-02		1.0000e+00
			-1.25		1.1912e-02		1.0000e+00
			-1.2		1.2021e-02		1.0000e+00
			-1.15		1.2363e-02		1.0000e+00
			-1.1		1.2704e-02		1.0000e+00
			-1.05		1.3046e-02		1.0000e+00
			-1.0		1.3388e-02		1.0000e+00
			-0.95		1.3525e-02		1.0000e+00
			-0.9		1.3662e-02		1.0000e+00
			-0.85		1.3800e-02		1.0000e+00
			-0.8		1.3937e-02		1.0000e+00
			-0.75		1.4336e-02		1.0000e+00
			-0.7		1.4734e-02		1.0000e+00
			-0.65		1.5133e-02		1.0000e+00
			-0.6		1.5532e-02		1.0000e+00
			-0.55		1.5710e-02		1.0000e+00
			-0.5		1.5888e-02		1.0000e+00
			-0.45		1.6066e-02		1.0000e+00
			-0.4		1.6244e-02		1.0000e+00
			-0.35		1.6711e-02		1.0000e+00
			-0.3		1.7179e-02		1.0000e+00
			-0.25		1.7647e-02		1.0000e+00
			-0.2		1.8115e-02		1.0000e+00
			-0.15		1.8329e-02		1.0000e+00
			-0.1		1.8544e-02		1.0000e+00
			-0.05		1.8758e-02		1.0000e+00
			-0.0		1.8972e-02		1.0000e+00
			0.05		1.9515e-02		1.0000e+00
			0.1		2.0058e-02		1.0000e+00
			0.15		2.0600e-02		1.0000e+00
			0.2		2.1143e-02		1.0000e+00
			0.25		2.1413e-02		1.0000e+00
			0.3		2.1683e-02		1.0000e+00
			0.35		2.1953e-02		1.0000e+00
			0.4		2.2224e-02		1.0000e+00
			0.45		2.2859e-02		1.0000e+00
			0.5		2.3494e-02		1.0000e+00
			0.55		2.4129e-02		1.0000e+00
			0.6		2.4764e-02		1.0000e+00
			0.65		2.5095e-02		1.0000e+00
			0.7		2.5425e-02		1.0000e+00
			0.75		2.5755e-02		1.0000e+00
			0.8		2.6086e-02		1.0000e+00
			0.85		2.6832e-02		1.0000e+00
			0.9		2.7578e-02		1.0000e+00
			0.95		2.8324e-02		1.0000e+00
			1.0		2.9070e-02		1.0000e+00
			1.05		2.9478e-02		1.0000e+00
			1.1		2.9887e-02		1.0000e+00
			1.15		3.0295e-02		1.0000e+00
			1.2		3.0704e-02		1.0000e+00
			1.25		3.1553e-02		1.0000e+00
			1.3		3.2402e-02		1.0000e+00
			1.35		3.3250e-02		1.0000e+00
			1.4		3.4099e-02		1.0000e+00
			1.45		3.4607e-02		1.0000e+00
			1.5		3.5115e-02		1.0000e+00
			1.55		3.5623e-02		1.0000e+00
			1.6		3.6131e-02		1.0000e+00
			1.65		3.7103e-02		1.0000e+00
			1.7		3.8075e-02		1.0000e+00
			1.75		3.9048e-02		1.0000e+00
			1.8		4.0020e-02		1.0000e+00
			1.85		4.0641e-02		1.0000e+00
			1.9		4.1261e-02		1.0000e+00
			1.95		4.1882e-02		1.0000e+00
			2.0		4.2502e-02		1.0000e+00
			2.05		4.3589e-02		1.0000e+00
			2.1		4.4676e-02		1.0000e+00
			2.15		4.5762e-02		1.0000e+00
			2.2		4.6849e-02		1.0000e+00
			2.25		4.7616e-02		1.0000e+00
			2.3		4.8384e-02		1.0000e+00
			2.35		4.9152e-02		1.0000e+00
			2.4		4.9919e-02		1.0000e+00
			2.45		5.1128e-02		1.0000e+00
			2.5		5.2338e-02		1.0000e+00
			2.55		5.3547e-02		1.0000e+00
			2.6		5.4756e-02		1.0000e+00
			2.65		5.5674e-02		1.0000e+00
			2.7		5.6592e-02		1.0000e+00
			2.75		5.7510e-02		1.0000e+00
			2.8		5.8427e-02		1.0000e+00
			2.85		5.9774e-02		1.0000e+00
			2.9		6.1120e-02		1.0000e+00
			2.95		6.2467e-02		1.0000e+00
			3.0		6.3813e-02		1.0000e+00
			3.05		6.4944e-02		1.0000e+00
			3.1		6.6074e-02		1.0000e+00
			3.15		6.7205e-02		1.0000e+00
			3.2		6.8335e-02		1.0000e+00
			3.25		6.9811e-02		1.0000e+00
			3.3		7.1286e-02		1.0000e+00
			3.35		7.2762e-02		1.0000e+00
			3.4		7.4238e-02		1.0000e+00
			3.45		7.5573e-02		1.0000e+00
			3.5		7.6909e-02		1.0000e+00
			3.55		7.8245e-02		1.0000e+00
			3.6		7.9581e-02		1.0000e+00
			3.65		8.1199e-02		1.0000e+00
			3.7		8.2816e-02		1.0000e+00
			3.75		8.4434e-02		1.0000e+00
			3.8		8.6052e-02		1.0000e+00
			3.85		8.7625e-02		1.0000e+00
			3.9		8.9199e-02		1.0000e+00
			3.95		9.0772e-02		1.0000e+00
			4.0		9.2345e-02		1.0000e+00
			4.05		9.4064e-02		1.0000e+00
			4.1		9.5784e-02		1.0000e+00
			4.15		9.7503e-02		1.0000e+00
			4.2		9.9223e-02		1.0000e+00
			4.25		1.0106e-01		1.0000e+00
			4.3		1.0291e-01		1.0000e+00
			4.35		1.0475e-01		1.0000e+00
			4.4		1.0659e-01		1.0000e+00
			4.45		1.0844e-01		1.0000e+00
			4.5		1.1028e-01		1.0000e+00
			4.55		1.1213e-01		1.0000e+00
			4.6		1.1398e-01		1.0000e+00
			4.65		1.1610e-01		1.0000e+00
			4.7		1.1823e-01		1.0000e+00
			4.75		1.2035e-01		1.0000e+00
			4.8		1.2247e-01		1.0000e+00
			4.85		1.2440e-01		1.0000e+00
			4.9		1.2632e-01		1.0000e+00
			4.95		1.2824e-01		1.0000e+00
			5.0		1.3016e-01		1.0000e+00
			5.05		1.3261e-01		1.0000e+00
			5.1		1.3507e-01		1.0000e+00
			5.15		1.3753e-01		1.0000e+00
			5.2		1.3998e-01		1.0000e+00
			5.25		1.4199e-01		1.0000e+00
			5.3		1.4400e-01		1.0000e+00
			5.35		1.4601e-01		1.0000e+00
			5.4		1.4802e-01		1.0000e+00
			5.45		1.5080e-01		1.0000e+00
			5.5		1.5358e-01		1.0000e+00
			5.55		1.5636e-01		1.0000e+00
			5.6		1.5914e-01		1.0000e+00
			5.65		1.6124e-01		1.0000e+00
			5.7		1.6334e-01		1.0000e+00
			5.75		1.6544e-01		1.0000e+00
			5.8		1.6754e-01		1.0000e+00
			5.85		1.7072e-01		1.0000e+00
			5.9		1.7389e-01		1.0000e+00
			5.95		1.7707e-01		1.0000e+00
			6.0		1.8025e-01		1.0000e+00
			6.05		1.9831e-01		1.0000e+00
			6.1		2.1637e-01		1.0000e+00
			6.15		2.3444e-01		1.0000e+00
			6.2		2.5250e-01		1.0000e+00
			6.25		2.6307e-01		1.0000e+00
			6.3		2.7364e-01		1.0000e+00
			6.35		2.8421e-01		1.0000e+00
			6.4		2.9478e-01		1.0000e+00
			6.45		3.0536e-01		1.0000e+00
			6.5		3.1594e-01		1.0000e+00
			6.55		3.2652e-01		1.0000e+00
			6.6		3.3710e-01		1.0000e+00
			6.65		3.7037e-01		1.0000e+00
			6.7		4.0364e-01		1.0000e+00
			6.75		4.3691e-01		1.0000e+00
			6.8		4.7018e-01		1.0000e+00
			6.85		5.0348e-01		1.0000e+00
			6.9		5.3677e-01		1.0000e+00
			6.95		5.7007e-01		1.0000e+00
			7.0		6.0336e-01		1.0000e+00
			7.05		6.3669e-01		1.0000e+00
			7.1		6.7001e-01		1.0000e+00
			7.15		7.0333e-01		1.0000e+00
			7.2		7.3666e-01		1.0000e+00
			7.25		7.7001e-01		1.0000e+00
			7.3		8.0335e-01		1.0000e+00
			7.35		8.3670e-01		1.0000e+00
			7.4		8.7005e-01		1.0000e+00
			7.45		8.7733e-01		1.0000e+00
			7.5		8.8460e-01		1.0000e+00
			7.55		8.9188e-01		1.0000e+00
			7.6		8.9915e-01		1.0000e+00
			7.65		9.0643e-01		1.0000e+00
			7.7		9.1371e-01		1.0000e+00
			7.75		9.2099e-01		1.0000e+00
			7.8		9.2827e-01		1.0000e+00
			7.85		9.3555e-01		1.0000e+00
			7.9		9.4284e-01		1.0000e+00
			7.95		9.5012e-01		1.0000e+00
			8.0		9.5741e-01		1.0000e+00
			8.05		9.6469e-01		1.0000e+00
			8.1		9.7198e-01		1.0000e+00
			8.15		9.7927e-01		1.0000e+00
			8.2		9.8656e-01		1.0000e+00
			8.25		9.9489e-01		1.0000e+00
			8.3		1.0032e+00		1.0000e+00
			8.35		1.0115e+00		1.0000e+00
			8.4		1.0199e+00		1.0000e+00
			8.45		1.0282e+00		1.0000e+00
			8.5		1.0365e+00		1.0000e+00
			8.55		1.0449e+00		1.0000e+00
			8.6		1.0532e+00		1.0000e+00
			8.65		1.0616e+00		1.0000e+00
			8.7		1.0699e+00		1.0000e+00
			8.75		1.0782e+00		1.0000e+00
			8.8		1.0866e+00		1.0000e+00
			8.85		1.0949e+00		1.0000e+00
			8.9		1.1033e+00		1.0000e+00
			8.95		1.1116e+00		1.0000e+00
			9.0		1.1200e+00		1.0000e+00
			9.05		1.1305e+00		1.0000e+00
			9.1		1.1411e+00		1.0000e+00
			9.15		1.1517e+00		1.0000e+00
			9.2		1.1623e+00		1.0000e+00
			9.25		1.1729e+00		1.0000e+00
			9.3		1.1835e+00		1.0000e+00
			9.35		1.1941e+00		1.0000e+00
			9.4		1.2047e+00		1.0000e+00
			9.45		1.2153e+00		1.0000e+00
			9.5		1.2259e+00		1.0000e+00
			9.55		1.2365e+00		1.0000e+00
			9.6		1.2471e+00		1.0000e+00
			9.65		1.2577e+00		1.0000e+00
			9.7		1.2683e+00		1.0000e+00
			9.75		1.2789e+00		1.0000e+00
			9.8		1.2895e+00		1.0000e+00
			9.85		1.3041e+00		1.0000e+00
			9.9		1.3186e+00		1.0000e+00
			9.95		1.3332e+00		1.0000e+00
			10.0		1.3477e+00		1.0000e+00
			10.05		1.3623e+00		1.0000e+00
			10.1		1.3768e+00		1.0000e+00
			10.15		1.3914e+00		1.0000e+00
			10.2		1.4060e+00		1.0000e+00
			10.25		1.4205e+00		1.0000e+00
			10.3		1.4351e+00		1.0000e+00
			10.35		1.4497e+00		1.0000e+00
			10.4		1.4642e+00		1.0000e+00
			10.45		1.4788e+00		1.0000e+00
			10.5		1.4934e+00		1.0000e+00
			10.55		1.5080e+00		1.0000e+00
			10.6		1.5225e+00		1.0000e+00
			10.65		1.5549e+00		1.0000e+00
			10.7		1.5873e+00		1.0000e+00
			10.75		1.6197e+00		1.0000e+00
			10.8		1.6521e+00		1.0000e+00
			10.85		1.6845e+00		1.0000e+00
			10.9		1.7170e+00		1.0000e+00
			10.95		1.7494e+00		1.0000e+00
			11.0		1.7818e+00		1.0000e+00
			11.05		1.8139e+00		1.0000e+00
			11.1		1.8461e+00		1.0000e+00
			11.15		1.8782e+00		1.0000e+00
			11.2		1.9103e+00		1.0000e+00
			11.25		1.9421e+00		1.0000e+00
			11.3		1.9739e+00		1.0000e+00
			11.35		2.0057e+00		1.0000e+00
			11.4		2.0375e+00		1.0000e+00
			11.45		2.2182e+00		1.0000e+00
			11.5		2.3988e+00		1.0000e+00
			11.55		2.5795e+00		1.0000e+00
			11.6		2.7602e+00		1.0000e+00
			11.65		3.4667e+00		1.0000e+00
			11.7		4.1732e+00		1.0000e+00
			11.75		4.8797e+00		1.0000e+00
			11.8		5.5862e+00		1.0000e+00
			11.85		6.5365e+00		1.0000e+00
			11.9		7.4868e+00		1.0000e+00
			11.95		8.4371e+00		1.0000e+00
			12.0		9.3874e+00		1.0000e+00
			12.05		9.6620e+00		1.0000e+00
			12.1		9.9366e+00		1.0000e+00
			12.15		1.0211e+01		1.0000e+00
			12.2		1.0486e+01		1.0000e+00
			12.25		9.9574e+00		1.0000e+00
			12.3		9.4289e+00		1.0000e+00
			12.35		8.9005e+00		1.0000e+00
			12.4		8.3721e+00		1.0000e+00
			12.45		7.4351e+00		1.0000e+00
			12.5		6.4981e+00		1.0000e+00
			12.55		5.5611e+00		1.0000e+00
			12.6		4.6242e+00		1.0000e+00
			12.65		4.4010e+00		1.0000e+00
			12.7		4.1778e+00		1.0000e+00
			12.75		3.9546e+00		1.0000e+00
			12.8		3.7314e+00		1.0000e+00
			12.85		3.9384e+00		1.0000e+00
			12.9		4.1454e+00		1.0000e+00
			12.95		4.3524e+00		1.0000e+00
			13.0		4.5594e+00		1.0000e+00
			13.05		5.5617e+00		1.0000e+00
			13.1		6.5639e+00		1.0000e+00
			13.15		7.5662e+00		1.0000e+00
			13.2		8.5684e+00		1.0000e+00
			13.25		9.1513e+00		1.0000e+00
			13.3		9.7342e+00		1.0000e+00
			13.35		1.0317e+01		1.0000e+00
			13.4		1.0900e+01		1.0000e+00
			13.45		1.0816e+01		1.0000e+00
			13.5		1.0733e+01		1.0000e+00
			13.55		1.0649e+01		1.0000e+00
			13.6		1.0566e+01		1.0000e+00
			13.65		9.6822e+00		1.0000e+00
			13.7		8.7987e+00		1.0000e+00
			13.75		7.9152e+00		1.0000e+00
			13.8		7.0317e+00		1.0000e+00
			13.85		6.3963e+00		1.0000e+00
			13.9		5.7610e+00		1.0000e+00
			13.95		5.1256e+00		1.0000e+00
			14.0		4.4902e+00		1.0000e+00
			14.05		4.4317e+00		1.0000e+00
			14.1		4.3731e+00		1.0000e+00
			14.15		4.3146e+00		1.0000e+00
			14.2		4.2560e+00		1.0000e+00
			14.25		4.7741e+00		1.0000e+00
			14.3		5.2921e+00		1.0000e+00
			14.35		5.8102e+00		1.0000e+00
			14.4		6.3282e+00		1.0000e+00
			14.45		7.3369e+00		1.0000e+00
			14.5		8.3455e+00		1.0000e+00
			14.55		9.3542e+00		1.0000e+00
			14.6		1.0363e+01		1.0000e+00
			14.65		1.0630e+01		1.0000e+00
			14.7		1.0898e+01		1.0000e+00
			14.75		1.1165e+01		1.0000e+00
			14.8		1.1432e+01		1.0000e+00
			14.85		1.1050e+01		1.0000e+00
			14.9		1.0668e+01		1.0000e+00
			14.95		1.0286e+01		1.0000e+00
			15.0		9.9040e+00		1.0000e+00
			15.05		8.8776e+00		1.0000e+00
			15.1		7.8512e+00		1.0000e+00
			15.15		6.8247e+00		1.0000e+00
			15.2		5.7983e+00		1.0000e+00
			15.25		5.4696e+00		1.0000e+00
			15.3		5.1409e+00		1.0000e+00
			15.35		4.8122e+00		1.0000e+00
			15.4		4.4835e+00		1.0000e+00
			15.45		4.6121e+00		1.0000e+00
			15.5		4.7406e+00		1.0000e+00
			15.55		4.8692e+00		1.0000e+00
			15.6		4.9978e+00		1.0000e+00
			15.65		5.8801e+00		1.0000e+00
			15.7		6.7624e+00		1.0000e+00
			15.75		7.6447e+00		1.0000e+00
			15.8		8.5270e+00		1.0000e+00
			15.85		9.2500e+00		1.0000e+00
			15.9		9.9730e+00		1.0000e+00
			15.95		1.0696e+01		1.0000e+00
			16.0		1.1419e+01		1.0000e+00
			16.05		1.1413e+01		1.0000e+00
			16.1		1.1408e+01		1.0000e+00
			16.15		1.1402e+01		1.0000e+00
			16.2		1.1397e+01		1.0000e+00
			16.25		1.0654e+01		1.0000e+00
			16.3		9.9111e+00		1.0000e+00
			16.35		9.1683e+00		1.0000e+00
			16.4		8.4255e+00		1.0000e+00
			16.45		7.6317e+00		1.0000e+00
			16.5		6.8379e+00		1.0000e+00
			16.55		6.0441e+00		1.0000e+00
			16.6		5.2502e+00		1.0000e+00
			16.65		5.1369e+00		1.0000e+00
			16.7		5.0236e+00		1.0000e+00
			16.75		4.9102e+00		1.0000e+00
			16.8		4.7969e+00		1.0000e+00
			16.85		5.1734e+00		1.0000e+00
			16.9		5.5499e+00		1.0000e+00
			16.95		5.9264e+00		1.0000e+00
			17.0		6.3030e+00		1.0000e+00
			17.05		7.3106e+00		1.0000e+00
			17.1		8.3183e+00		1.0000e+00
			17.15		9.3259e+00		1.0000e+00
			17.2		1.0334e+01		1.0000e+00
			17.25		1.0690e+01		1.0000e+00
			17.3		1.1047e+01		1.0000e+00
			17.35		1.1404e+01		1.0000e+00
			17.4		1.1761e+01		1.0000e+00
			17.45		1.1524e+01		1.0000e+00
			17.5		1.1288e+01		1.0000e+00
			17.55		1.1051e+01		1.0000e+00
			17.6		1.0815e+01		1.0000e+00
			17.65		9.8593e+00		1.0000e+00
			17.7		8.9041e+00		1.0000e+00
			17.75		7.9488e+00		1.0000e+00
			17.8		6.9936e+00		1.0000e+00
			17.85		6.5310e+00		1.0000e+00
			17.9		6.0684e+00		1.0000e+00
			17.95		5.6059e+00		1.0000e+00
			18.0		5.1433e+00		1.0000e+00
			18.05		5.1791e+00		1.0000e+00
			18.1		5.2148e+00		1.0000e+00
			18.15		5.2506e+00		1.0000e+00
			18.2		5.2863e+00		1.0000e+00
			18.25		5.9373e+00		1.0000e+00
			18.3		6.5882e+00		1.0000e+00
			18.35		7.2392e+00		1.0000e+00
			18.4		7.8901e+00		1.0000e+00
			18.45		8.7471e+00		1.0000e+00
			18.5		9.6041e+00		1.0000e+00
			18.55		1.0461e+01		1.0000e+00
			18.6		1.1318e+01		1.0000e+00
			18.65		1.1477e+01		1.0000e+00
			18.7		1.1635e+01		1.0000e+00
			18.75		1.1794e+01		1.0000e+00
			18.8		1.1952e+01		1.0000e+00
			18.85		1.1400e+01		1.0000e+00
			18.9		1.0849e+01		1.0000e+00
			18.95		1.0297e+01		1.0000e+00
			19.0		9.7452e+00		1.0000e+00
			19.05		8.8014e+00		1.0000e+00
			19.1		7.8577e+00		1.0000e+00
			19.15		6.9140e+00		1.0000e+00
			19.2		5.9702e+00		1.0000e+00
			19.25		5.7351e+00		1.0000e+00
			19.3		5.4999e+00		1.0000e+00
			19.35		5.2648e+00		1.0000e+00
			19.4		5.0296e+00		1.0000e+00
			19.45		5.2348e+00		1.0000e+00
			19.5		5.4400e+00		1.0000e+00
			19.55		5.6451e+00		1.0000e+00
			19.6		5.8503e+00		1.0000e+00
			19.65		6.8499e+00		1.0000e+00
			19.7		7.8495e+00		1.0000e+00
			19.75		8.8491e+00		1.0000e+00
			19.8		9.8487e+00		1.0000e+00
			19.85		1.0429e+01		1.0000e+00
			19.9		1.1009e+01		1.0000e+00
			19.95		1.1589e+01		1.0000e+00
			20.0		1.2169e+01		1.0000e+00
			20.05		1.2036e+01		1.0000e+00
			20.1		1.1903e+01		1.0000e+00
			20.15		1.1770e+01		1.0000e+00
			20.2		1.1637e+01		1.0000e+00
			20.25		1.0708e+01		1.0000e+00
			20.3		9.7788e+00		1.0000e+00
			20.35		8.8499e+00		1.0000e+00
			20.4		7.9209e+00		1.0000e+00
			20.45		7.2888e+00		1.0000e+00
			20.5		6.6567e+00		1.0000e+00
			20.55		6.0246e+00		1.0000e+00
			20.6		5.3924e+00		1.0000e+00
			20.65		5.3597e+00		1.0000e+00
			20.7		5.3269e+00		1.0000e+00
			20.75		5.2942e+00		1.0000e+00
			20.8		5.2614e+00		1.0000e+00
			20.85		5.8208e+00		1.0000e+00
			20.9		6.3801e+00		1.0000e+00
			20.95		6.9394e+00		1.0000e+00
			21.0		7.4988e+00		1.0000e+00
			21.05		8.4854e+00		1.0000e+00
			21.1		9.4721e+00		1.0000e+00
			21.15		1.0459e+01		1.0000e+00
			21.2		1.1445e+01		1.0000e+00
			21.25		1.1657e+01		1.0000e+00
			21.3		1.1870e+01		1.0000e+00
			21.35		1.2082e+01		1.0000e+00
			21.4		1.2294e+01		1.0000e+00
			21.45		1.1850e+01		1.0000e+00
			21.5		1.1406e+01		1.0000e+00
			21.55		1.0963e+01		1.0000e+00
			21.6		1.0519e+01		1.0000e+00
			21.65		9.5082e+00		1.0000e+00
			21.7		8.4970e+00		1.0000e+00
			21.75		7.4859e+00		1.0000e+00
			21.8		6.4747e+00		1.0000e+00
			21.85		6.1809e+00		1.0000e+00
			21.9		5.8871e+00		1.0000e+00
			21.95		5.5933e+00		1.0000e+00
			22.0		5.2995e+00		1.0000e+00
			22.05		5.4628e+00		1.0000e+00
			22.1		5.6262e+00		1.0000e+00
			22.15		5.7895e+00		1.0000e+00
			22.2		5.9529e+00		1.0000e+00
			22.25		6.8090e+00		1.0000e+00
			22.3		7.6651e+00		1.0000e+00
			22.35		8.5213e+00		1.0000e+00
			22.4		9.3774e+00		1.0000e+00
			22.45		1.0041e+01		1.0000e+00
			22.5		1.0704e+01		1.0000e+00
			22.55		1.1367e+01		1.0000e+00
			22.6		1.2030e+01		1.0000e+00
			22.65		1.1984e+01		1.0000e+00
			22.7		1.1939e+01		1.0000e+00
			22.75		1.1893e+01		1.0000e+00
			22.8		1.1847e+01		1.0000e+00
			22.85		1.1115e+01		1.0000e+00
			22.9		1.0382e+01		1.0000e+00
			22.95		9.6493e+00		1.0000e+00
			23.0		8.9166e+00		1.0000e+00
			23.05		8.1471e+00		1.0000e+00
			23.1		7.3776e+00		1.0000e+00
			23.15		6.6081e+00		1.0000e+00
			23.2		5.8386e+00		1.0000e+00
			23.25		5.7338e+00		1.0000e+00
			23.3		5.6291e+00		1.0000e+00
			23.35		5.5243e+00		1.0000e+00
			23.4		5.4196e+00		1.0000e+00
			23.45		5.7873e+00		1.0000e+00
			23.5		6.1550e+00		1.0000e+00
			23.55		6.5226e+00		1.0000e+00
			23.6		6.8903e+00		1.0000e+00
			23.65		7.8866e+00		1.0000e+00
			23.7		8.8830e+00		1.0000e+00
			23.75		9.8793e+00		1.0000e+00
			23.8		1.0876e+01		1.0000e+00
			23.85		1.1212e+01		1.0000e+00
			23.9		1.1549e+01		1.0000e+00
			23.95		1.1885e+01		1.0000e+00
			24.0		1.2222e+01		1.0000e+00
			24.05		1.1962e+01		1.0000e+00
			24.1		1.1703e+01		1.0000e+00
			24.15		1.1443e+01		1.0000e+00
			24.2		1.1184e+01		1.0000e+00
			24.25		1.0211e+01		1.0000e+00
			24.3		9.2390e+00		1.0000e+00
			24.35		8.2667e+00		1.0000e+00
			24.4		7.2944e+00		1.0000e+00
			24.45		6.8306e+00		1.0000e+00
			24.5		6.3669e+00		1.0000e+00
			24.55		5.9031e+00		1.0000e+00
			24.6		5.4394e+00		1.0000e+00
			24.65		5.5050e+00		1.0000e+00
			24.7		5.5706e+00		1.0000e+00
			24.75		5.6362e+00		1.0000e+00
			24.8		5.7019e+00		1.0000e+00
			24.85		6.3802e+00		1.0000e+00
			24.9		7.0585e+00		1.0000e+00
			24.95		7.7368e+00		1.0000e+00
			25.0		8.4152e+00		1.0000e+00
			25.05		9.2354e+00		1.0000e+00
			25.1		1.0056e+01		1.0000e+00
			25.15		1.0876e+01		1.0000e+00
			25.2		1.1696e+01		1.0000e+00
			25.25		1.1796e+01		1.0000e+00
			25.3		1.1896e+01		1.0000e+00
			25.35		1.1996e+01		1.0000e+00
			25.4		1.2096e+01		1.0000e+00
			25.45		1.1489e+01		1.0000e+00
			25.5		1.0882e+01		1.0000e+00
			25.55		1.0276e+01		1.0000e+00
			25.6		9.6687e+00		1.0000e+00
			25.65		8.7605e+00		1.0000e+00
			25.7		7.8522e+00		1.0000e+00
			25.75		6.9440e+00		1.0000e+00
			25.8		6.0357e+00		1.0000e+00
			25.85		5.8533e+00		1.0000e+00
			25.9		5.6709e+00		1.0000e+00
			25.95		5.4884e+00		1.0000e+00
			26.0		5.3060e+00		1.0000e+00
			26.05		5.5371e+00		1.0000e+00
			26.1		5.7681e+00		1.0000e+00
			26.15		5.9992e+00		1.0000e+00
			26.2		6.2302e+00		1.0000e+00
			26.25		7.1974e+00		1.0000e+00
			26.3		8.1645e+00		1.0000e+00
			26.35		9.1316e+00		1.0000e+00
			26.4		1.0099e+01		1.0000e+00
			26.45		1.0599e+01		1.0000e+00
			26.5		1.1100e+01		1.0000e+00
			26.55		1.1600e+01		1.0000e+00
			26.6		1.2101e+01		1.0000e+00
			26.65		1.1950e+01		1.0000e+00
			26.7		1.1799e+01		1.0000e+00
			26.75		1.1647e+01		1.0000e+00
			26.8		1.1496e+01		1.0000e+00
			26.85		1.0601e+01		1.0000e+00
			26.9		9.7066e+00		1.0000e+00
			26.95		8.8117e+00		1.0000e+00
			27.0		7.9169e+00		1.0000e+00
			27.05		7.3365e+00		1.0000e+00
			27.1		6.7562e+00		1.0000e+00
			27.15		6.1759e+00		1.0000e+00
			27.2		5.5956e+00		1.0000e+00
			27.25		5.5622e+00		1.0000e+00
			27.3		5.5287e+00		1.0000e+00
			27.35		5.4953e+00		1.0000e+00
			27.4		5.4619e+00		1.0000e+00
			27.45		5.9719e+00		1.0000e+00
			27.5		6.4819e+00		1.0000e+00
			27.55		6.9918e+00		1.0000e+00
			27.6		7.5018e+00		1.0000e+00
			27.65		8.4533e+00		1.0000e+00
			27.7		9.4049e+00		1.0000e+00
			27.75		1.0356e+01		1.0000e+00
			27.8		1.1308e+01		1.0000e+00
			27.85		1.1528e+01		1.0000e+00
			27.9		1.1747e+01		1.0000e+00
			27.95		1.1967e+01		1.0000e+00
			28.0		1.2186e+01		1.0000e+00
			28.05		1.1771e+01		1.0000e+00
			28.1		1.1356e+01		1.0000e+00
			28.15		1.0942e+01		1.0000e+00
			28.2		1.0527e+01		1.0000e+00
			28.25		9.5087e+00		1.0000e+00
			28.3		8.4906e+00		1.0000e+00
			28.35		7.4726e+00		1.0000e+00
			28.4		6.4546e+00		1.0000e+00
			28.45		6.1284e+00		1.0000e+00
			28.5		5.8021e+00		1.0000e+00
			28.55		5.4759e+00		1.0000e+00
			28.6		5.1496e+00		1.0000e+00
			28.65		5.3001e+00		1.0000e+00
			28.7		5.4507e+00		1.0000e+00
			28.75		5.6012e+00		1.0000e+00
			28.8		5.7517e+00		1.0000e+00
			28.85		6.6331e+00		1.0000e+00
			28.9		7.5144e+00		1.0000e+00
			28.95		8.3958e+00		1.0000e+00
			29.0		9.2771e+00		1.0000e+00
			29.05		9.9865e+00		1.0000e+00
			29.1		1.0696e+01		1.0000e+00
			29.15		1.1405e+01		1.0000e+00
			29.2		1.2115e+01		1.0000e+00
			29.25		1.2059e+01		1.0000e+00
			29.3		1.2003e+01		1.0000e+00
			29.35		1.1947e+01		1.0000e+00
			29.4		1.1891e+01		1.0000e+00
			29.45		1.1093e+01		1.0000e+00
			29.5		1.0296e+01		1.0000e+00
			29.55		9.4982e+00		1.0000e+00
			29.6		8.7006e+00		1.0000e+00
			29.65		7.8951e+00		1.0000e+00
			29.7		7.0896e+00		1.0000e+00
			29.75		6.2841e+00		1.0000e+00
			29.8		5.4787e+00		1.0000e+00
			29.85		5.3840e+00		1.0000e+00
			29.9		5.2894e+00		1.0000e+00
			29.95		5.1947e+00		1.0000e+00
			30.0		5.1000e+00		1.0000e+00
			30.05		5.5319e+00		1.0000e+00
			30.1		5.9637e+00		1.0000e+00
			30.15		6.3955e+00		1.0000e+00
			30.2		6.8274e+00		1.0000e+00
			30.25		7.8536e+00		1.0000e+00
			30.3		8.8799e+00		1.0000e+00
			30.35		9.9061e+00		1.0000e+00
			30.4		1.0932e+01		1.0000e+00
			30.45		1.1223e+01		1.0000e+00
			30.5		1.1513e+01		1.0000e+00
			30.55		1.1804e+01		1.0000e+00
			30.6		1.2095e+01		1.0000e+00
			30.65		1.1767e+01		1.0000e+00
			30.7		1.1438e+01		1.0000e+00
			30.75		1.1110e+01		1.0000e+00
			30.8		1.0782e+01		1.0000e+00
			30.85		9.7666e+00		1.0000e+00
			30.9		8.7511e+00		1.0000e+00
			30.95		7.7355e+00		1.0000e+00
			31.0		6.7199e+00		1.0000e+00
			31.05		6.2988e+00		1.0000e+00
			31.1		5.8778e+00		1.0000e+00
			31.15		5.4567e+00		1.0000e+00
			31.2		5.0356e+00		1.0000e+00
			31.25		5.1478e+00		1.0000e+00
			31.3		5.2601e+00		1.0000e+00
			31.35		5.3723e+00		1.0000e+00
			31.4		5.4845e+00		1.0000e+00
			31.45		6.1913e+00		1.0000e+00
			31.5		6.8981e+00		1.0000e+00
			31.55		7.6049e+00		1.0000e+00
			31.6		8.3118e+00		1.0000e+00
			31.65		9.0910e+00		1.0000e+00
			31.7		9.8703e+00		1.0000e+00
			31.75		1.0650e+01		1.0000e+00
			31.8		1.1429e+01		1.0000e+00
			31.85		1.1485e+01		1.0000e+00
			31.9		1.1541e+01		1.0000e+00
			31.95		1.1597e+01		1.0000e+00
			32.0		1.1653e+01		1.0000e+00
			32.05		1.1026e+01		1.0000e+00
			32.1		1.0399e+01		1.0000e+00
			32.15		9.7718e+00		1.0000e+00
			32.2		9.1448e+00		1.0000e+00
			32.25		8.2444e+00		1.0000e+00
			32.3		7.3441e+00		1.0000e+00
			32.35		6.4438e+00		1.0000e+00
			32.4		5.5435e+00		1.0000e+00
			32.45		5.3688e+00		1.0000e+00
			32.5		5.1941e+00		1.0000e+00
			32.55		5.0194e+00		1.0000e+00
			32.6		4.8447e+00		1.0000e+00
			32.65		5.0793e+00		1.0000e+00
			32.7		5.3138e+00		1.0000e+00
			32.75		5.5484e+00		1.0000e+00
			32.8		5.7830e+00		1.0000e+00
			32.85		6.7477e+00		1.0000e+00
			32.9		7.7124e+00		1.0000e+00
			32.95		8.6771e+00		1.0000e+00
			33.0		9.6418e+00		1.0000e+00
			33.05		1.0139e+01		1.0000e+00
			33.1		1.0636e+01		1.0000e+00
			33.15		1.1133e+01		1.0000e+00
			33.2		1.1629e+01		1.0000e+00
			33.25		1.1451e+01		1.0000e+00
			33.3		1.1272e+01		1.0000e+00
			33.35		1.1093e+01		1.0000e+00
			33.4		1.0914e+01		1.0000e+00
			33.45		9.9826e+00		1.0000e+00
			33.5		9.0513e+00		1.0000e+00
			33.55		8.1200e+00		1.0000e+00
			33.6		7.1887e+00		1.0000e+00
			33.65		6.5783e+00		1.0000e+00
			33.7		5.9679e+00		1.0000e+00
			33.75		5.3575e+00		1.0000e+00
			33.8		4.7471e+00		1.0000e+00
			33.85		4.7352e+00		1.0000e+00
			33.9		4.7233e+00		1.0000e+00
			33.95		4.7114e+00		1.0000e+00
			34.0		4.6994e+00		1.0000e+00
			34.05		5.2438e+00		1.0000e+00
			34.1		5.7882e+00		1.0000e+00
			34.15		6.3325e+00		1.0000e+00
			34.2		6.8769e+00		1.0000e+00
			34.25		7.8369e+00		1.0000e+00
			34.3		8.7970e+00		1.0000e+00
			34.35		9.7570e+00		1.0000e+00
			34.4		1.0717e+01		1.0000e+00
			34.45		1.0887e+01		1.0000e+00
			34.5		1.1058e+01		1.0000e+00
			34.55		1.1228e+01		1.0000e+00
			34.6		1.1398e+01		1.0000e+00
			34.65		1.0920e+01		1.0000e+00
			34.7		1.0441e+01		1.0000e+00
			34.75		9.9631e+00		1.0000e+00
			34.8		9.4848e+00		1.0000e+00
			34.85		8.4406e+00		1.0000e+00
			34.9		7.3964e+00		1.0000e+00
			34.95		6.3522e+00		1.0000e+00
			35.0		5.3080e+00		1.0000e+00
			35.05		5.0229e+00		1.0000e+00
			35.1		4.7377e+00		1.0000e+00
			35.15		4.4526e+00		1.0000e+00
			35.2		4.1674e+00		1.0000e+00
			35.25		4.3386e+00		1.0000e+00
			35.3		4.5098e+00		1.0000e+00
			35.35		4.6811e+00		1.0000e+00
			35.4		4.8523e+00		1.0000e+00
			35.45		5.7471e+00		1.0000e+00
			35.5		6.6419e+00		1.0000e+00
			35.55		7.5367e+00		1.0000e+00
			35.6		8.4316e+00		1.0000e+00
			35.65		9.0820e+00		1.0000e+00
			35.7		9.7325e+00		1.0000e+00
			35.75		1.0383e+01		1.0000e+00
			35.8		1.1034e+01		1.0000e+00
			35.85		1.0924e+01		1.0000e+00
			35.9		1.0814e+01		1.0000e+00
			35.95		1.0704e+01		1.0000e+00
			36.0		1.0594e+01		1.0000e+00
			36.05		9.7805e+00		1.0000e+00
			36.1		8.9673e+00		1.0000e+00
			36.15		8.1541e+00		1.0000e+00
			36.2		7.3408e+00		1.0000e+00
			36.25		6.5593e+00		1.0000e+00
			36.3		5.7777e+00		1.0000e+00
			36.35		4.9961e+00		1.0000e+00
			36.4		4.2146e+00		1.0000e+00
			36.45		4.1381e+00		1.0000e+00
			36.5		4.0616e+00		1.0000e+00
			36.55		3.9851e+00		1.0000e+00
			36.6		3.9086e+00		1.0000e+00
			36.65		4.3228e+00		1.0000e+00
			36.7		4.7371e+00		1.0000e+00
			36.75		5.1513e+00		1.0000e+00
			36.8		5.5655e+00		1.0000e+00
			36.85		6.5684e+00		1.0000e+00
			36.9		7.5713e+00		1.0000e+00
			36.95		8.5743e+00		1.0000e+00
			37.0		9.5772e+00		1.0000e+00
			37.05		9.8492e+00		1.0000e+00
			37.1		1.0121e+01		1.0000e+00
			37.15		1.0393e+01		1.0000e+00
			37.2		1.0665e+01		1.0000e+00
			37.25		1.0309e+01		1.0000e+00
			37.3		9.9523e+00		1.0000e+00
			37.35		9.5959e+00		1.0000e+00
			37.4		9.2395e+00		1.0000e+00
			37.45		8.1581e+00		1.0000e+00
			37.5		7.0766e+00		1.0000e+00
			37.55		5.9951e+00		1.0000e+00
			37.6		4.9137e+00		1.0000e+00
			37.65		4.3803e+00		1.0000e+00
			37.7		3.8469e+00		1.0000e+00
			37.75		3.3135e+00		1.0000e+00
			37.8		2.7801e+00		1.0000e+00
			37.85		2.7089e+00		1.0000e+00
			37.9		2.6376e+00		1.0000e+00
			37.95		2.5664e+00		1.0000e+00
			38.0		2.4951e+00		1.0000e+00
			38.05		2.4239e+00		1.0000e+00
			38.1		2.3527e+00		1.0000e+00
			38.15		2.2815e+00		1.0000e+00
			38.2		2.2103e+00		1.0000e+00
			38.25		2.1391e+00		1.0000e+00
			38.3		2.0679e+00		1.0000e+00
			38.35		1.9968e+00		1.0000e+00
			38.4		1.9256e+00		1.0000e+00
			38.45		1.8544e+00		1.0000e+00
			38.5		1.7833e+00		1.0000e+00
			38.55		1.7122e+00		1.0000e+00
			38.6		1.6410e+00		1.0000e+00
			38.65		1.6226e+00		1.0000e+00
			38.7		1.6041e+00		1.0000e+00
			38.75		1.5857e+00		1.0000e+00
			38.8		1.5672e+00		1.0000e+00
			38.85		1.5488e+00		1.0000e+00
			38.9		1.5304e+00		1.0000e+00
			38.95		1.5119e+00		1.0000e+00
			39.0		1.4935e+00		1.0000e+00
			39.05		1.4750e+00		1.0000e+00
			39.1		1.4566e+00		1.0000e+00
			39.15		1.4382e+00		1.0000e+00
			39.2		1.4197e+00		1.0000e+00
			39.25		1.4013e+00		1.0000e+00
			39.3		1.3829e+00		1.0000e+00
			39.35		1.3645e+00		1.0000e+00
			39.4		1.3460e+00		1.0000e+00
			39.45		1.3342e+00		1.0000e+00
			39.5		1.3224e+00		1.0000e+00
			39.55		1.3105e+00		1.0000e+00
			39.6		1.2987e+00		1.0000e+00
			39.65		1.2869e+00		1.0000e+00
