BEGIN_SCAN_DATA
	FORMAT=CC-Export V1.9                  
	FILE_CREATION_DATE=
	LAST_MODIFIED=11-Jan-2023 11:56:56
	BEGIN_SCAN  1
		TASK_NAME=RayStation Phantom Profiles & PDDs
		PROGRAM=RayStation
		COMMENT=RayStation Script Export
		MEAS_DATE=11-Jan-2023 11:56:56
		LINAC=RayStation
		MODALITY=X
		ISOCENTER=1000.00
		INPLANE_AXIS=Y
		CROSSPLANE_AXIS=X
		DEPTH_AXIS=Z
		INPLANE_AXIS_DIR=GUN_TARGET
		CROSSPLANE_AXIS_DIR=LEFT_RIGHT
		DEPTH_AXIS_DIR=UP_DOWN
		ENERGY=6.3
		NOMINAL_DMAX=20.00
		SSD=1000.0
		SCD=1000.00
		WEDGE_ANGLE=0.00
		FIELD_INPLANE=200.0
		FIELD_CROSSPLANE=200.0
		FIELD_TYPE=IRREGULAR
		GANTRY=0.00
		GANTRY_UPRIGHT_POSITION=0
		GANTRY_ROTATION=CW
		COLL_ANGLE=0.00
		REF_FIELD_DEPTH=50.00
		REF_FIELD_DEFINED=ISOCENTER
		FIELD_INPLANE=200.0
		FIELD_CROSSPLANE=200.0
		SCAN_CURVETYPE=INPLANE_PROFILE
		SCAN_DEPTH=100.0
		SCAN_OFFAXIS_INPLANE=0.00
		SCAN_OFFAXIS_CROSSPLANE=0.00
		SCAN_ANGLE=0.00
		SCAN_DIAGONAL=NOT_DIAGONAL
		SCAN_DIRECTION=NEGATIVE
		MEAS_MEDIUM=WATER
		MEAS_UNIT=cGy
		INCLINATION_ANGLE=0.00
		PRESSURE=1013.20
		TEMPERATURE=20.00
		NORM_TEMPERATURE=20.00
		CORRECTION_FACTOR=1.0000;
		BEGIN_DATA
			-5.0		6.9873e-03		1.0000e+00
			-4.95		7.0314e-03		1.0000e+00
			-4.9		7.0755e-03		1.0000e+00
			-4.85		7.1196e-03		1.0000e+00
			-4.8		7.1637e-03		1.0000e+00
			-4.75		7.2828e-03		1.0000e+00
			-4.7		7.4020e-03		1.0000e+00
			-4.65		7.5211e-03		1.0000e+00
			-4.6		7.6403e-03		1.0000e+00
			-4.55		7.7028e-03		1.0000e+00
			-4.5		7.7653e-03		1.0000e+00
			-4.45		7.8278e-03		1.0000e+00
			-4.4		7.8903e-03		1.0000e+00
			-4.35		7.9863e-03		1.0000e+00
			-4.3		8.0824e-03		1.0000e+00
			-4.25		8.1784e-03		1.0000e+00
			-4.2		8.2745e-03		1.0000e+00
			-4.15		8.3842e-03		1.0000e+00
			-4.1		8.4940e-03		1.0000e+00
			-4.05		8.6037e-03		1.0000e+00
			-4.0		8.7135e-03		1.0000e+00
			-3.95		8.7773e-03		1.0000e+00
			-3.9		8.8412e-03		1.0000e+00
			-3.85		8.9051e-03		1.0000e+00
			-3.8		8.9690e-03		1.0000e+00
			-3.75		9.1129e-03		1.0000e+00
			-3.7		9.2568e-03		1.0000e+00
			-3.65		9.4008e-03		1.0000e+00
			-3.6		9.5447e-03		1.0000e+00
			-3.55		9.6242e-03		1.0000e+00
			-3.5		9.7037e-03		1.0000e+00
			-3.45		9.7832e-03		1.0000e+00
			-3.4		9.8627e-03		1.0000e+00
			-3.35		9.9708e-03		1.0000e+00
			-3.3		1.0079e-02		1.0000e+00
			-3.25		1.0187e-02		1.0000e+00
			-3.2		1.0295e-02		1.0000e+00
			-3.15		1.0438e-02		1.0000e+00
			-3.1		1.0581e-02		1.0000e+00
			-3.05		1.0723e-02		1.0000e+00
			-3.0		1.0866e-02		1.0000e+00
			-2.95		1.0940e-02		1.0000e+00
			-2.9		1.1014e-02		1.0000e+00
			-2.85		1.1088e-02		1.0000e+00
			-2.8		1.1163e-02		1.0000e+00
			-2.75		1.1334e-02		1.0000e+00
			-2.7		1.1505e-02		1.0000e+00
			-2.65		1.1676e-02		1.0000e+00
			-2.6		1.1847e-02		1.0000e+00
			-2.55		1.1949e-02		1.0000e+00
			-2.5		1.2051e-02		1.0000e+00
			-2.45		1.2154e-02		1.0000e+00
			-2.4		1.2256e-02		1.0000e+00
			-2.35		1.2375e-02		1.0000e+00
			-2.3		1.2494e-02		1.0000e+00
			-2.25		1.2613e-02		1.0000e+00
			-2.2		1.2733e-02		1.0000e+00
			-2.15		1.2916e-02		1.0000e+00
			-2.1		1.3099e-02		1.0000e+00
			-2.05		1.3282e-02		1.0000e+00
			-2.0		1.3465e-02		1.0000e+00
			-1.95		1.3552e-02		1.0000e+00
			-1.9		1.3640e-02		1.0000e+00
			-1.85		1.3728e-02		1.0000e+00
			-1.8		1.3816e-02		1.0000e+00
			-1.75		1.4022e-02		1.0000e+00
			-1.7		1.4229e-02		1.0000e+00
			-1.65		1.4435e-02		1.0000e+00
			-1.6		1.4642e-02		1.0000e+00
			-1.55		1.4781e-02		1.0000e+00
			-1.5		1.4920e-02		1.0000e+00
			-1.45		1.5059e-02		1.0000e+00
			-1.4		1.5198e-02		1.0000e+00
			-1.35		1.5338e-02		1.0000e+00
			-1.3		1.5478e-02		1.0000e+00
			-1.25		1.5618e-02		1.0000e+00
			-1.2		1.5757e-02		1.0000e+00
			-1.15		1.6002e-02		1.0000e+00
			-1.1		1.6247e-02		1.0000e+00
			-1.05		1.6492e-02		1.0000e+00
			-1.0		1.6736e-02		1.0000e+00
			-0.95		1.6850e-02		1.0000e+00
			-0.9		1.6964e-02		1.0000e+00
			-0.85		1.7077e-02		1.0000e+00
			-0.8		1.7191e-02		1.0000e+00
			-0.75		1.7449e-02		1.0000e+00
			-0.7		1.7707e-02		1.0000e+00
			-0.65		1.7966e-02		1.0000e+00
			-0.6		1.8224e-02		1.0000e+00
			-0.55		1.8421e-02		1.0000e+00
			-0.5		1.8618e-02		1.0000e+00
			-0.45		1.8815e-02		1.0000e+00
			-0.4		1.9012e-02		1.0000e+00
			-0.35		1.9184e-02		1.0000e+00
			-0.3		1.9355e-02		1.0000e+00
			-0.25		1.9526e-02		1.0000e+00
			-0.2		1.9698e-02		1.0000e+00
			-0.15		2.0042e-02		1.0000e+00
			-0.1		2.0386e-02		1.0000e+00
			-0.05		2.0730e-02		1.0000e+00
			-0.0		2.1074e-02		1.0000e+00
			0.05		2.1239e-02		1.0000e+00
			0.1		2.1404e-02		1.0000e+00
			0.15		2.1569e-02		1.0000e+00
			0.2		2.1734e-02		1.0000e+00
			0.25		2.2077e-02		1.0000e+00
			0.3		2.2421e-02		1.0000e+00
			0.35		2.2765e-02		1.0000e+00
			0.4		2.3109e-02		1.0000e+00
			0.45		2.3426e-02		1.0000e+00
			0.5		2.3744e-02		1.0000e+00
			0.55		2.4061e-02		1.0000e+00
			0.6		2.4378e-02		1.0000e+00
			0.65		2.4611e-02		1.0000e+00
			0.7		2.4844e-02		1.0000e+00
			0.75		2.5077e-02		1.0000e+00
			0.8		2.5310e-02		1.0000e+00
			0.85		2.5841e-02		1.0000e+00
			0.9		2.6373e-02		1.0000e+00
			0.95		2.6904e-02		1.0000e+00
			1.0		2.7436e-02		1.0000e+00
			1.05		2.7701e-02		1.0000e+00
			1.1		2.7966e-02		1.0000e+00
			1.15		2.8231e-02		1.0000e+00
			1.2		2.8496e-02		1.0000e+00
			1.25		2.9001e-02		1.0000e+00
			1.3		2.9505e-02		1.0000e+00
			1.35		3.0010e-02		1.0000e+00
			1.4		3.0514e-02		1.0000e+00
			1.45		3.1058e-02		1.0000e+00
			1.5		3.1603e-02		1.0000e+00
			1.55		3.2148e-02		1.0000e+00
			1.6		3.2692e-02		1.0000e+00
			1.65		3.3044e-02		1.0000e+00
			1.7		3.3396e-02		1.0000e+00
			1.75		3.3748e-02		1.0000e+00
			1.8		3.4100e-02		1.0000e+00
			1.85		3.4973e-02		1.0000e+00
			1.9		3.5846e-02		1.0000e+00
			1.95		3.6718e-02		1.0000e+00
			2.0		3.7591e-02		1.0000e+00
			2.05		3.8062e-02		1.0000e+00
			2.1		3.8534e-02		1.0000e+00
			2.15		3.9005e-02		1.0000e+00
			2.2		3.9476e-02		1.0000e+00
			2.25		4.0250e-02		1.0000e+00
			2.3		4.1023e-02		1.0000e+00
			2.35		4.1797e-02		1.0000e+00
			2.4		4.2570e-02		1.0000e+00
			2.45		4.3571e-02		1.0000e+00
			2.5		4.4572e-02		1.0000e+00
			2.55		4.5573e-02		1.0000e+00
			2.6		4.6573e-02		1.0000e+00
			2.65		4.7143e-02		1.0000e+00
			2.7		4.7712e-02		1.0000e+00
			2.75		4.8281e-02		1.0000e+00
			2.8		4.8851e-02		1.0000e+00
			2.85		5.0356e-02		1.0000e+00
			2.9		5.1862e-02		1.0000e+00
			2.95		5.3368e-02		1.0000e+00
			3.0		5.4873e-02		1.0000e+00
			3.05		5.5732e-02		1.0000e+00
			3.1		5.6590e-02		1.0000e+00
			3.15		5.7449e-02		1.0000e+00
			3.2		5.8307e-02		1.0000e+00
			3.25		5.9526e-02		1.0000e+00
			3.3		6.0746e-02		1.0000e+00
			3.35		6.1965e-02		1.0000e+00
			3.4		6.3184e-02		1.0000e+00
			3.45		6.4993e-02		1.0000e+00
			3.5		6.6802e-02		1.0000e+00
			3.55		6.8611e-02		1.0000e+00
			3.6		7.0420e-02		1.0000e+00
			3.65		7.1347e-02		1.0000e+00
			3.7		7.2275e-02		1.0000e+00
			3.75		7.3203e-02		1.0000e+00
			3.8		7.4131e-02		1.0000e+00
			3.85		1.2495e-01		1.0000e+00
			3.9		1.7577e-01		1.0000e+00
			3.95		2.2658e-01		1.0000e+00
			4.0		2.7740e-01		1.0000e+00
			4.05		3.2831e-01		1.0000e+00
			4.1		3.7922e-01		1.0000e+00
			4.15		4.3013e-01		1.0000e+00
			4.2		4.8104e-01		1.0000e+00
			4.25		4.8528e-01		1.0000e+00
			4.3		4.8952e-01		1.0000e+00
			4.35		4.9376e-01		1.0000e+00
			4.4		4.9801e-01		1.0000e+00
			4.45		5.0225e-01		1.0000e+00
			4.5		5.0650e-01		1.0000e+00
			4.55		5.1075e-01		1.0000e+00
			4.6		5.1499e-01		1.0000e+00
			4.65		5.1925e-01		1.0000e+00
			4.7		5.2350e-01		1.0000e+00
			4.75		5.2775e-01		1.0000e+00
			4.8		5.3200e-01		1.0000e+00
			4.85		5.3625e-01		1.0000e+00
			4.9		5.4051e-01		1.0000e+00
			4.95		5.4477e-01		1.0000e+00
			5.0		5.4902e-01		1.0000e+00
			5.05		5.5435e-01		1.0000e+00
			5.1		5.5967e-01		1.0000e+00
			5.15		5.6500e-01		1.0000e+00
			5.2		5.7032e-01		1.0000e+00
			5.25		5.7565e-01		1.0000e+00
			5.3		5.8098e-01		1.0000e+00
			5.35		5.8631e-01		1.0000e+00
			5.4		5.9164e-01		1.0000e+00
			5.45		5.9698e-01		1.0000e+00
			5.5		6.0231e-01		1.0000e+00
			5.55		6.0765e-01		1.0000e+00
			5.6		6.1299e-01		1.0000e+00
			5.65		6.1833e-01		1.0000e+00
			5.7		6.2367e-01		1.0000e+00
			5.75		6.2901e-01		1.0000e+00
			5.8		6.3435e-01		1.0000e+00
			5.85		6.4080e-01		1.0000e+00
			5.9		6.4724e-01		1.0000e+00
			5.95		6.5369e-01		1.0000e+00
			6.0		6.6013e-01		1.0000e+00
			6.05		6.6658e-01		1.0000e+00
			6.1		6.7303e-01		1.0000e+00
			6.15		6.7949e-01		1.0000e+00
			6.2		6.8594e-01		1.0000e+00
			6.25		6.9240e-01		1.0000e+00
			6.3		6.9885e-01		1.0000e+00
			6.35		7.0531e-01		1.0000e+00
			6.4		7.1177e-01		1.0000e+00
			6.45		7.1824e-01		1.0000e+00
			6.5		7.2470e-01		1.0000e+00
			6.55		7.3117e-01		1.0000e+00
			6.6		7.3763e-01		1.0000e+00
			6.65		7.4543e-01		1.0000e+00
			6.7		7.5323e-01		1.0000e+00
			6.75		7.6102e-01		1.0000e+00
			6.8		7.6882e-01		1.0000e+00
			6.85		7.7663e-01		1.0000e+00
			6.9		7.8443e-01		1.0000e+00
			6.95		7.9224e-01		1.0000e+00
			7.0		8.0004e-01		1.0000e+00
			7.05		8.0786e-01		1.0000e+00
			7.1		8.1567e-01		1.0000e+00
			7.15		8.2349e-01		1.0000e+00
			7.2		8.3130e-01		1.0000e+00
			7.25		8.3912e-01		1.0000e+00
			7.3		8.4694e-01		1.0000e+00
			7.35		8.5476e-01		1.0000e+00
			7.4		8.6258e-01		1.0000e+00
			7.45		8.7234e-01		1.0000e+00
			7.5		8.8211e-01		1.0000e+00
			7.55		8.9188e-01		1.0000e+00
			7.6		9.0164e-01		1.0000e+00
			7.65		9.1142e-01		1.0000e+00
			7.7		9.2119e-01		1.0000e+00
			7.75		9.3096e-01		1.0000e+00
			7.8		9.4074e-01		1.0000e+00
			7.85		9.5052e-01		1.0000e+00
			7.9		9.6031e-01		1.0000e+00
			7.95		9.7009e-01		1.0000e+00
			8.0		9.7988e-01		1.0000e+00
			8.05		9.8967e-01		1.0000e+00
			8.1		9.9946e-01		1.0000e+00
			8.15		1.0093e+00		1.0000e+00
			8.2		1.0191e+00		1.0000e+00
			8.25		1.0404e+00		1.0000e+00
			8.3		1.0617e+00		1.0000e+00
			8.35		1.0830e+00		1.0000e+00
			8.4		1.1043e+00		1.0000e+00
			8.45		1.1257e+00		1.0000e+00
			8.5		1.1470e+00		1.0000e+00
			8.55		1.1683e+00		1.0000e+00
			8.6		1.1897e+00		1.0000e+00
			8.65		1.2111e+00		1.0000e+00
			8.7		1.2324e+00		1.0000e+00
			8.75		1.2538e+00		1.0000e+00
			8.8		1.2751e+00		1.0000e+00
			8.85		1.2965e+00		1.0000e+00
			8.9		1.3179e+00		1.0000e+00
			8.95		1.3393e+00		1.0000e+00
			9.0		1.3607e+00		1.0000e+00
			9.05		1.3849e+00		1.0000e+00
			9.1		1.4092e+00		1.0000e+00
			9.15		1.4335e+00		1.0000e+00
			9.2		1.4578e+00		1.0000e+00
			9.25		1.4821e+00		1.0000e+00
			9.3		1.5064e+00		1.0000e+00
			9.35		1.5307e+00		1.0000e+00
			9.4		1.5550e+00		1.0000e+00
			9.45		1.5794e+00		1.0000e+00
			9.5		1.6037e+00		1.0000e+00
			9.55		1.6280e+00		1.0000e+00
			9.6		1.6523e+00		1.0000e+00
			9.65		1.6767e+00		1.0000e+00
			9.7		1.7010e+00		1.0000e+00
			9.75		1.7254e+00		1.0000e+00
			9.8		1.7497e+00		1.0000e+00
			9.85		1.7719e+00		1.0000e+00
			9.9		1.7940e+00		1.0000e+00
			9.95		1.8162e+00		1.0000e+00
			10.0		1.8383e+00		1.0000e+00
			10.05		1.8605e+00		1.0000e+00
			10.1		1.8826e+00		1.0000e+00
			10.15		1.9048e+00		1.0000e+00
			10.2		1.9270e+00		1.0000e+00
			10.25		1.9491e+00		1.0000e+00
			10.3		1.9713e+00		1.0000e+00
			10.35		1.9935e+00		1.0000e+00
			10.4		2.0157e+00		1.0000e+00
			10.45		2.0378e+00		1.0000e+00
			10.5		2.0600e+00		1.0000e+00
			10.55		2.0822e+00		1.0000e+00
			10.6		2.1044e+00		1.0000e+00
			10.65		2.1304e+00		1.0000e+00
			10.7		2.1563e+00		1.0000e+00
			10.75		2.1822e+00		1.0000e+00
			10.8		2.2082e+00		1.0000e+00
			10.85		2.2341e+00		1.0000e+00
			10.9		2.2601e+00		1.0000e+00
			10.95		2.2861e+00		1.0000e+00
			11.0		2.3120e+00		1.0000e+00
			11.05		2.3380e+00		1.0000e+00
			11.1		2.3640e+00		1.0000e+00
			11.15		2.3899e+00		1.0000e+00
			11.2		2.4159e+00		1.0000e+00
			11.25		2.4419e+00		1.0000e+00
			11.3		2.4679e+00		1.0000e+00
			11.35		2.4939e+00		1.0000e+00
			11.4		2.5199e+00		1.0000e+00
			11.45		2.5550e+00		1.0000e+00
			11.5		2.5901e+00		1.0000e+00
			11.55		2.6252e+00		1.0000e+00
			11.6		2.6603e+00		1.0000e+00
			11.65		2.6955e+00		1.0000e+00
			11.7		2.7306e+00		1.0000e+00
			11.75		2.7657e+00		1.0000e+00
			11.8		2.8009e+00		1.0000e+00
			11.85		2.8360e+00		1.0000e+00
			11.9		2.8712e+00		1.0000e+00
			11.95		2.9064e+00		1.0000e+00
			12.0		2.9415e+00		1.0000e+00
			12.05		2.9767e+00		1.0000e+00
			12.1		3.0119e+00		1.0000e+00
			12.15		3.0471e+00		1.0000e+00
			12.2		3.0823e+00		1.0000e+00
			12.25		3.1277e+00		1.0000e+00
			12.3		3.1731e+00		1.0000e+00
			12.35		3.2184e+00		1.0000e+00
			12.4		3.2638e+00		1.0000e+00
			12.45		3.3092e+00		1.0000e+00
			12.5		3.3547e+00		1.0000e+00
			12.55		3.4001e+00		1.0000e+00
			12.6		3.4455e+00		1.0000e+00
			12.65		3.4910e+00		1.0000e+00
			12.7		3.5364e+00		1.0000e+00
			12.75		3.5819e+00		1.0000e+00
			12.8		3.6274e+00		1.0000e+00
			12.85		3.6728e+00		1.0000e+00
			12.9		3.7183e+00		1.0000e+00
			12.95		3.7638e+00		1.0000e+00
			13.0		3.8093e+00		1.0000e+00
			13.05		3.8981e+00		1.0000e+00
			13.1		3.9868e+00		1.0000e+00
			13.15		4.0756e+00		1.0000e+00
			13.2		4.1644e+00		1.0000e+00
			13.25		4.2535e+00		1.0000e+00
			13.3		4.3427e+00		1.0000e+00
			13.35		4.4318e+00		1.0000e+00
			13.4		4.5210e+00		1.0000e+00
			13.45		4.7105e+00		1.0000e+00
			13.5		4.8999e+00		1.0000e+00
			13.55		5.0894e+00		1.0000e+00
			13.6		5.2788e+00		1.0000e+00
			13.65		5.8337e+00		1.0000e+00
			13.7		6.3885e+00		1.0000e+00
			13.75		6.9434e+00		1.0000e+00
			13.8		7.4982e+00		1.0000e+00
			13.85		1.0393e+01		1.0000e+00
			13.9		1.3288e+01		1.0000e+00
			13.95		1.6183e+01		1.0000e+00
			14.0		1.9078e+01		1.0000e+00
			14.05		2.3240e+01		1.0000e+00
			14.1		2.7403e+01		1.0000e+00
			14.15		3.1566e+01		1.0000e+00
			14.2		3.5729e+01		1.0000e+00
			14.25		3.5944e+01		1.0000e+00
			14.3		3.6158e+01		1.0000e+00
			14.35		3.6373e+01		1.0000e+00
			14.4		3.6588e+01		1.0000e+00
			14.45		3.2400e+01		1.0000e+00
			14.5		2.8213e+01		1.0000e+00
			14.55		2.4025e+01		1.0000e+00
			14.6		1.9837e+01		1.0000e+00
			14.65		1.7708e+01		1.0000e+00
			14.7		1.5580e+01		1.0000e+00
			14.75		1.3451e+01		1.0000e+00
			14.8		1.1322e+01		1.0000e+00
			14.85		1.2022e+01		1.0000e+00
			14.9		1.2723e+01		1.0000e+00
			14.95		1.3424e+01		1.0000e+00
			15.0		1.4124e+01		1.0000e+00
			15.05		1.8918e+01		1.0000e+00
			15.1		2.3712e+01		1.0000e+00
			15.15		2.8505e+01		1.0000e+00
			15.2		3.3299e+01		1.0000e+00
			15.25		3.4945e+01		1.0000e+00
			15.3		3.6592e+01		1.0000e+00
			15.35		3.8238e+01		1.0000e+00
			15.4		3.9885e+01		1.0000e+00
			15.45		3.7639e+01		1.0000e+00
			15.5		3.5392e+01		1.0000e+00
			15.55		3.3146e+01		1.0000e+00
			15.6		3.0900e+01		1.0000e+00
			15.65		2.6770e+01		1.0000e+00
			15.7		2.2640e+01		1.0000e+00
			15.75		1.8510e+01		1.0000e+00
			15.8		1.4380e+01		1.0000e+00
			15.85		1.3935e+01		1.0000e+00
			15.9		1.3489e+01		1.0000e+00
			15.95		1.3044e+01		1.0000e+00
			16.0		1.2598e+01		1.0000e+00
			16.05		1.5416e+01		1.0000e+00
			16.1		1.8234e+01		1.0000e+00
			16.15		2.1052e+01		1.0000e+00
			16.2		2.3871e+01		1.0000e+00
			16.25		2.7710e+01		1.0000e+00
			16.3		3.1549e+01		1.0000e+00
			16.35		3.5388e+01		1.0000e+00
			16.4		3.9227e+01		1.0000e+00
			16.45		3.9017e+01		1.0000e+00
			16.5		3.8807e+01		1.0000e+00
			16.55		3.8597e+01		1.0000e+00
			16.6		3.8387e+01		1.0000e+00
			16.65		3.4134e+01		1.0000e+00
			16.7		2.9881e+01		1.0000e+00
			16.75		2.5627e+01		1.0000e+00
			16.8		2.1374e+01		1.0000e+00
			16.85		1.9276e+01		1.0000e+00
			16.9		1.7178e+01		1.0000e+00
			16.95		1.5080e+01		1.0000e+00
			17.0		1.2981e+01		1.0000e+00
			17.05		1.3686e+01		1.0000e+00
			17.1		1.4391e+01		1.0000e+00
			17.15		1.5096e+01		1.0000e+00
			17.2		1.5801e+01		1.0000e+00
			17.25		2.0527e+01		1.0000e+00
			17.3		2.5253e+01		1.0000e+00
			17.35		2.9978e+01		1.0000e+00
			17.4		3.4704e+01		1.0000e+00
			17.45		3.6231e+01		1.0000e+00
			17.5		3.7758e+01		1.0000e+00
			17.55		3.9285e+01		1.0000e+00
			17.6		4.0812e+01		1.0000e+00
			17.65		3.8495e+01		1.0000e+00
			17.7		3.6178e+01		1.0000e+00
			17.75		3.3861e+01		1.0000e+00
			17.8		3.1544e+01		1.0000e+00
			17.85		2.7481e+01		1.0000e+00
			17.9		2.3418e+01		1.0000e+00
			17.95		1.9355e+01		1.0000e+00
			18.0		1.5292e+01		1.0000e+00
			18.05		1.4885e+01		1.0000e+00
			18.1		1.4478e+01		1.0000e+00
			18.15		1.4071e+01		1.0000e+00
			18.2		1.3665e+01		1.0000e+00
			18.25		1.6479e+01		1.0000e+00
			18.3		1.9293e+01		1.0000e+00
			18.35		2.2106e+01		1.0000e+00
			18.4		2.4920e+01		1.0000e+00
			18.45		2.8655e+01		1.0000e+00
			18.5		3.2389e+01		1.0000e+00
			18.55		3.6123e+01		1.0000e+00
			18.6		3.9857e+01		1.0000e+00
			18.65		3.9578e+01		1.0000e+00
			18.7		3.9298e+01		1.0000e+00
			18.75		3.9019e+01		1.0000e+00
			18.8		3.8739e+01		1.0000e+00
			18.85		3.4493e+01		1.0000e+00
			18.9		3.0247e+01		1.0000e+00
			18.95		2.6001e+01		1.0000e+00
			19.0		2.1755e+01		1.0000e+00
			19.05		1.9727e+01		1.0000e+00
			19.1		1.7698e+01		1.0000e+00
			19.15		1.5670e+01		1.0000e+00
			19.2		1.3642e+01		1.0000e+00
			19.25		1.4379e+01		1.0000e+00
			19.3		1.5115e+01		1.0000e+00
			19.35		1.5852e+01		1.0000e+00
			19.4		1.6589e+01		1.0000e+00
			19.45		2.1290e+01		1.0000e+00
			19.5		2.5990e+01		1.0000e+00
			19.55		3.0690e+01		1.0000e+00
			19.6		3.5390e+01		1.0000e+00
			19.65		3.6820e+01		1.0000e+00
			19.7		3.8251e+01		1.0000e+00
			19.75		3.9681e+01		1.0000e+00
			19.8		4.1111e+01		1.0000e+00
			19.85		3.8746e+01		1.0000e+00
			19.9		3.6381e+01		1.0000e+00
			19.95		3.4015e+01		1.0000e+00
			20.0		3.1650e+01		1.0000e+00
			20.05		2.7674e+01		1.0000e+00
			20.1		2.3699e+01		1.0000e+00
			20.15		1.9723e+01		1.0000e+00
			20.2		1.5748e+01		1.0000e+00
			20.25		1.5367e+01		1.0000e+00
			20.3		1.4986e+01		1.0000e+00
			20.35		1.4605e+01		1.0000e+00
			20.4		1.4224e+01		1.0000e+00
			20.45		1.7036e+01		1.0000e+00
			20.5		1.9848e+01		1.0000e+00
			20.55		2.2660e+01		1.0000e+00
			20.6		2.5472e+01		1.0000e+00
			20.65		2.9131e+01		1.0000e+00
			20.7		3.2790e+01		1.0000e+00
			20.75		3.6449e+01		1.0000e+00
			20.8		4.0108e+01		1.0000e+00
			20.85		3.9757e+01		1.0000e+00
			20.9		3.9406e+01		1.0000e+00
			20.95		3.9055e+01		1.0000e+00
			21.0		3.8705e+01		1.0000e+00
			21.05		3.4495e+01		1.0000e+00
			21.1		3.0286e+01		1.0000e+00
			21.15		2.6077e+01		1.0000e+00
			21.2		2.1868e+01		1.0000e+00
			21.25		1.9899e+01		1.0000e+00
			21.3		1.7931e+01		1.0000e+00
			21.35		1.5962e+01		1.0000e+00
			21.4		1.3994e+01		1.0000e+00
			21.45		1.4753e+01		1.0000e+00
			21.5		1.5513e+01		1.0000e+00
			21.55		1.6272e+01		1.0000e+00
			21.6		1.7032e+01		1.0000e+00
			21.65		2.1698e+01		1.0000e+00
			21.7		2.6364e+01		1.0000e+00
			21.75		3.1031e+01		1.0000e+00
			21.8		3.5697e+01		1.0000e+00
			21.85		3.7039e+01		1.0000e+00
			21.9		3.8381e+01		1.0000e+00
			21.95		3.9723e+01		1.0000e+00
			22.0		4.1065e+01		1.0000e+00
			22.05		3.8666e+01		1.0000e+00
			22.1		3.6267e+01		1.0000e+00
			22.15		3.3868e+01		1.0000e+00
			22.2		3.1469e+01		1.0000e+00
			22.25		2.7571e+01		1.0000e+00
			22.3		2.3674e+01		1.0000e+00
			22.35		1.9776e+01		1.0000e+00
			22.4		1.5879e+01		1.0000e+00
			22.45		1.5539e+01		1.0000e+00
			22.5		1.5200e+01		1.0000e+00
			22.55		1.4860e+01		1.0000e+00
			22.6		1.4520e+01		1.0000e+00
			22.65		1.7326e+01		1.0000e+00
			22.7		2.0132e+01		1.0000e+00
			22.75		2.2937e+01		1.0000e+00
			22.8		2.5743e+01		1.0000e+00
			22.85		2.9317e+01		1.0000e+00
			22.9		3.2891e+01		1.0000e+00
			22.95		3.6465e+01		1.0000e+00
			23.0		4.0039e+01		1.0000e+00
			23.05		3.9638e+01		1.0000e+00
			23.1		3.9236e+01		1.0000e+00
			23.15		3.8835e+01		1.0000e+00
			23.2		3.8433e+01		1.0000e+00
			23.25		3.4251e+01		1.0000e+00
			23.3		3.0068e+01		1.0000e+00
			23.35		2.5885e+01		1.0000e+00
			23.4		2.1702e+01		1.0000e+00
			23.45		1.9795e+01		1.0000e+00
			23.5		1.7888e+01		1.0000e+00
			23.55		1.5980e+01		1.0000e+00
			23.6		1.4073e+01		1.0000e+00
			23.65		1.4874e+01		1.0000e+00
			23.7		1.5674e+01		1.0000e+00
			23.75		1.6475e+01		1.0000e+00
			23.8		1.7275e+01		1.0000e+00
			23.85		2.1892e+01		1.0000e+00
			23.9		2.6508e+01		1.0000e+00
			23.95		3.1124e+01		1.0000e+00
			24.0		3.5741e+01		1.0000e+00
			24.05		3.7015e+01		1.0000e+00
			24.1		3.8289e+01		1.0000e+00
			24.15		3.9563e+01		1.0000e+00
			24.2		4.0837e+01		1.0000e+00
			24.25		3.8403e+01		1.0000e+00
			24.3		3.5969e+01		1.0000e+00
			24.35		3.3536e+01		1.0000e+00
			24.4		3.1102e+01		1.0000e+00
			24.45		2.7298e+01		1.0000e+00
			24.5		2.3495e+01		1.0000e+00
			24.55		1.9692e+01		1.0000e+00
			24.6		1.5889e+01		1.0000e+00
			24.65		1.5589e+01		1.0000e+00
			24.7		1.5289e+01		1.0000e+00
			24.75		1.4989e+01		1.0000e+00
			24.8		1.4689e+01		1.0000e+00
			24.85		1.7507e+01		1.0000e+00
			24.9		2.0325e+01		1.0000e+00
			24.95		2.3143e+01		1.0000e+00
			25.0		2.5962e+01		1.0000e+00
			25.05		2.9450e+01		1.0000e+00
			25.1		3.2939e+01		1.0000e+00
			25.15		3.6427e+01		1.0000e+00
			25.2		3.9916e+01		1.0000e+00
			25.25		3.9479e+01		1.0000e+00
			25.3		3.9042e+01		1.0000e+00
			25.35		3.8605e+01		1.0000e+00
			25.4		3.8168e+01		1.0000e+00
			25.45		3.4009e+01		1.0000e+00
			25.5		2.9850e+01		1.0000e+00
			25.55		2.5691e+01		1.0000e+00
			25.6		2.1532e+01		1.0000e+00
			25.65		1.9677e+01		1.0000e+00
			25.7		1.7823e+01		1.0000e+00
			25.75		1.5969e+01		1.0000e+00
			25.8		1.4114e+01		1.0000e+00
			25.85		1.4985e+01		1.0000e+00
			25.9		1.5855e+01		1.0000e+00
			25.95		1.6725e+01		1.0000e+00
			26.0		1.7596e+01		1.0000e+00
			26.05		2.2216e+01		1.0000e+00
			26.1		2.6836e+01		1.0000e+00
			26.15		3.1456e+01		1.0000e+00
			26.2		3.6076e+01		1.0000e+00
			26.25		3.7288e+01		1.0000e+00
			26.3		3.8501e+01		1.0000e+00
			26.35		3.9713e+01		1.0000e+00
			26.4		4.0926e+01		1.0000e+00
			26.45		3.8451e+01		1.0000e+00
			26.5		3.5976e+01		1.0000e+00
			26.55		3.3501e+01		1.0000e+00
			26.6		3.1026e+01		1.0000e+00
			26.65		2.7212e+01		1.0000e+00
			26.7		2.3398e+01		1.0000e+00
			26.75		1.9584e+01		1.0000e+00
			26.8		1.5770e+01		1.0000e+00
			26.85		1.5530e+01		1.0000e+00
			26.9		1.5291e+01		1.0000e+00
			26.95		1.5052e+01		1.0000e+00
			27.0		1.4812e+01		1.0000e+00
			27.05		1.7708e+01		1.0000e+00
			27.1		2.0605e+01		1.0000e+00
			27.15		2.3501e+01		1.0000e+00
			27.2		2.6398e+01		1.0000e+00
			27.25		2.9893e+01		1.0000e+00
			27.3		3.3388e+01		1.0000e+00
			27.35		3.6883e+01		1.0000e+00
			27.4		4.0378e+01		1.0000e+00
			27.45		3.9877e+01		1.0000e+00
			27.5		3.9375e+01		1.0000e+00
			27.55		3.8873e+01		1.0000e+00
			27.6		3.8372e+01		1.0000e+00
			27.65		3.4115e+01		1.0000e+00
			27.7		2.9858e+01		1.0000e+00
			27.75		2.5601e+01		1.0000e+00
			27.8		2.1344e+01		1.0000e+00
			27.85		1.9520e+01		1.0000e+00
			27.9		1.7696e+01		1.0000e+00
			27.95		1.5872e+01		1.0000e+00
			28.0		1.4047e+01		1.0000e+00
			28.05		1.4969e+01		1.0000e+00
			28.1		1.5890e+01		1.0000e+00
			28.15		1.6811e+01		1.0000e+00
			28.2		1.7732e+01		1.0000e+00
			28.25		2.2421e+01		1.0000e+00
			28.3		2.7110e+01		1.0000e+00
			28.35		3.1799e+01		1.0000e+00
			28.4		3.6488e+01		1.0000e+00
			28.45		3.7648e+01		1.0000e+00
			28.5		3.8808e+01		1.0000e+00
			28.55		3.9969e+01		1.0000e+00
			28.6		4.1129e+01		1.0000e+00
			28.65		3.8550e+01		1.0000e+00
			28.7		3.5970e+01		1.0000e+00
			28.75		3.3391e+01		1.0000e+00
			28.8		3.0812e+01		1.0000e+00
			28.85		2.6982e+01		1.0000e+00
			28.9		2.3152e+01		1.0000e+00
			28.95		1.9322e+01		1.0000e+00
			29.0		1.5492e+01		1.0000e+00
			29.05		1.5284e+01		1.0000e+00
			29.1		1.5076e+01		1.0000e+00
			29.15		1.4868e+01		1.0000e+00
			29.2		1.4660e+01		1.0000e+00
			29.25		1.7628e+01		1.0000e+00
			29.3		2.0596e+01		1.0000e+00
			29.35		2.3564e+01		1.0000e+00
			29.4		2.6532e+01		1.0000e+00
			29.45		3.0031e+01		1.0000e+00
			29.5		3.3530e+01		1.0000e+00
			29.55		3.7028e+01		1.0000e+00
			29.6		4.0527e+01		1.0000e+00
			29.65		3.9958e+01		1.0000e+00
			29.7		3.9390e+01		1.0000e+00
			29.75		3.8821e+01		1.0000e+00
			29.8		3.8253e+01		1.0000e+00
			29.85		3.3906e+01		1.0000e+00
			29.9		2.9560e+01		1.0000e+00
			29.95		2.5213e+01		1.0000e+00
			30.0		2.0867e+01		1.0000e+00
			30.05		1.9061e+01		1.0000e+00
			30.1		1.7256e+01		1.0000e+00
			30.15		1.5451e+01		1.0000e+00
			30.2		1.3646e+01		1.0000e+00
			30.25		1.4635e+01		1.0000e+00
			30.3		1.5624e+01		1.0000e+00
			30.35		1.6614e+01		1.0000e+00
			30.4		1.7603e+01		1.0000e+00
			30.45		2.2318e+01		1.0000e+00
			30.5		2.7033e+01		1.0000e+00
			30.55		3.1748e+01		1.0000e+00
			30.6		3.6462e+01		1.0000e+00
			30.65		3.7586e+01		1.0000e+00
			30.7		3.8710e+01		1.0000e+00
			30.75		3.9833e+01		1.0000e+00
			30.8		4.0957e+01		1.0000e+00
			30.85		3.8291e+01		1.0000e+00
			30.9		3.5625e+01		1.0000e+00
			30.95		3.2958e+01		1.0000e+00
			31.0		3.0292e+01		1.0000e+00
			31.05		2.6437e+01		1.0000e+00
			31.1		2.2581e+01		1.0000e+00
			31.15		1.8725e+01		1.0000e+00
			31.2		1.4869e+01		1.0000e+00
			31.25		1.4702e+01		1.0000e+00
			31.3		1.4535e+01		1.0000e+00
			31.35		1.4368e+01		1.0000e+00
			31.4		1.4201e+01		1.0000e+00
			31.45		1.7242e+01		1.0000e+00
			31.5		2.0282e+01		1.0000e+00
			31.55		2.3323e+01		1.0000e+00
			31.6		2.6364e+01		1.0000e+00
			31.65		2.9849e+01		1.0000e+00
			31.7		3.3334e+01		1.0000e+00
			31.75		3.6820e+01		1.0000e+00
			31.8		4.0305e+01		1.0000e+00
			31.85		3.9680e+01		1.0000e+00
			31.9		3.9054e+01		1.0000e+00
			31.95		3.8429e+01		1.0000e+00
			32.0		3.7803e+01		1.0000e+00
			32.05		3.3356e+01		1.0000e+00
			32.1		2.8908e+01		1.0000e+00
			32.15		2.4461e+01		1.0000e+00
			32.2		2.0013e+01		1.0000e+00
			32.25		1.8250e+01		1.0000e+00
			32.3		1.6487e+01		1.0000e+00
			32.35		1.4723e+01		1.0000e+00
			32.4		1.2960e+01		1.0000e+00
			32.45		1.4010e+01		1.0000e+00
			32.5		1.5060e+01		1.0000e+00
			32.55		1.6111e+01		1.0000e+00
			32.6		1.7161e+01		1.0000e+00
			32.65		2.1905e+01		1.0000e+00
			32.7		2.6649e+01		1.0000e+00
			32.75		3.1394e+01		1.0000e+00
			32.8		3.6138e+01		1.0000e+00
			32.85		3.7203e+01		1.0000e+00
			32.9		3.8267e+01		1.0000e+00
			32.95		3.9332e+01		1.0000e+00
			33.0		4.0397e+01		1.0000e+00
			33.05		3.7626e+01		1.0000e+00
			33.1		3.4855e+01		1.0000e+00
			33.15		3.2083e+01		1.0000e+00
			33.2		2.9312e+01		1.0000e+00
			33.25		2.5436e+01		1.0000e+00
			33.3		2.1559e+01		1.0000e+00
			33.35		1.7682e+01		1.0000e+00
			33.4		1.3805e+01		1.0000e+00
			33.45		1.3673e+01		1.0000e+00
			33.5		1.3541e+01		1.0000e+00
			33.55		1.3409e+01		1.0000e+00
			33.6		1.3277e+01		1.0000e+00
			33.65		1.6385e+01		1.0000e+00
			33.7		1.9493e+01		1.0000e+00
			33.75		2.2601e+01		1.0000e+00
			33.8		2.5709e+01		1.0000e+00
			33.85		2.9157e+01		1.0000e+00
			33.9		3.2606e+01		1.0000e+00
			33.95		3.6054e+01		1.0000e+00
			34.0		3.9503e+01		1.0000e+00
			34.05		3.8782e+01		1.0000e+00
			34.1		3.8060e+01		1.0000e+00
			34.15		3.7339e+01		1.0000e+00
			34.2		3.6617e+01		1.0000e+00
			34.25		3.2060e+01		1.0000e+00
			34.3		2.7502e+01		1.0000e+00
			34.35		2.2945e+01		1.0000e+00
			34.4		1.8387e+01		1.0000e+00
			34.45		1.6638e+01		1.0000e+00
			34.5		1.4889e+01		1.0000e+00
			34.55		1.3141e+01		1.0000e+00
			34.6		1.1392e+01		1.0000e+00
			34.65		1.2476e+01		1.0000e+00
			34.7		1.3561e+01		1.0000e+00
			34.75		1.4645e+01		1.0000e+00
			34.8		1.5729e+01		1.0000e+00
			34.85		2.0477e+01		1.0000e+00
			34.9		2.5224e+01		1.0000e+00
			34.95		2.9972e+01		1.0000e+00
			35.0		3.4719e+01		1.0000e+00
			35.05		3.5675e+01		1.0000e+00
			35.1		3.6630e+01		1.0000e+00
			35.15		3.7586e+01		1.0000e+00
			35.2		3.8542e+01		1.0000e+00
			35.25		3.5541e+01		1.0000e+00
			35.3		3.2541e+01		1.0000e+00
			35.35		2.9541e+01		1.0000e+00
			35.4		2.6541e+01		1.0000e+00
			35.45		2.2374e+01		1.0000e+00
			35.5		1.8207e+01		1.0000e+00
			35.55		1.4040e+01		1.0000e+00
			35.6		9.8725e+00		1.0000e+00
			35.65		8.9700e+00		1.0000e+00
			35.7		8.0674e+00		1.0000e+00
			35.75		7.1649e+00		1.0000e+00
			35.8		6.2623e+00		1.0000e+00
			35.85		6.0211e+00		1.0000e+00
			35.9		5.7798e+00		1.0000e+00
			35.95		5.5386e+00		1.0000e+00
			36.0		5.2973e+00		1.0000e+00
			36.05		5.0562e+00		1.0000e+00
			36.1		4.8151e+00		1.0000e+00
			36.15		4.5740e+00		1.0000e+00
			36.2		4.3329e+00		1.0000e+00
			36.25		4.2673e+00		1.0000e+00
			36.3		4.2016e+00		1.0000e+00
			36.35		4.1359e+00		1.0000e+00
			36.4		4.0702e+00		1.0000e+00
			36.45		4.0046e+00		1.0000e+00
			36.5		3.9389e+00		1.0000e+00
			36.55		3.8733e+00		1.0000e+00
			36.6		3.8077e+00		1.0000e+00
			36.65		3.7421e+00		1.0000e+00
			36.7		3.6765e+00		1.0000e+00
			36.75		3.6109e+00		1.0000e+00
			36.8		3.5453e+00		1.0000e+00
			36.85		3.4797e+00		1.0000e+00
			36.9		3.4142e+00		1.0000e+00
			36.95		3.3486e+00		1.0000e+00
			37.0		3.2831e+00		1.0000e+00
			37.05		3.2478e+00		1.0000e+00
			37.1		3.2126e+00		1.0000e+00
			37.15		3.1773e+00		1.0000e+00
			37.2		3.1420e+00		1.0000e+00
			37.25		3.1068e+00		1.0000e+00
			37.3		3.0716e+00		1.0000e+00
			37.35		3.0363e+00		1.0000e+00
			37.4		3.0011e+00		1.0000e+00
			37.45		2.9659e+00		1.0000e+00
			37.5		2.9307e+00		1.0000e+00
			37.55		2.8954e+00		1.0000e+00
			37.6		2.8602e+00		1.0000e+00
			37.65		2.8250e+00		1.0000e+00
			37.7		2.7898e+00		1.0000e+00
			37.75		2.7547e+00		1.0000e+00
			37.8		2.7195e+00		1.0000e+00
			37.85		2.6881e+00		1.0000e+00
			37.9		2.6567e+00		1.0000e+00
			37.95		2.6254e+00		1.0000e+00
			38.0		2.5940e+00		1.0000e+00
			38.05		2.5626e+00		1.0000e+00
			38.1		2.5313e+00		1.0000e+00
			38.15		2.4999e+00		1.0000e+00
			38.2		2.4686e+00		1.0000e+00
			38.25		2.4373e+00		1.0000e+00
			38.3		2.4060e+00		1.0000e+00
			38.35		2.3746e+00		1.0000e+00
			38.4		2.3433e+00		1.0000e+00
			38.45		2.3120e+00		1.0000e+00
			38.5		2.2807e+00		1.0000e+00
			38.55		2.2494e+00		1.0000e+00
			38.6		2.2181e+00		1.0000e+00
			38.65		2.1959e+00		1.0000e+00
			38.7		2.1737e+00		1.0000e+00
			38.75		2.1515e+00		1.0000e+00
			38.8		2.1293e+00		1.0000e+00
			38.85		2.1071e+00		1.0000e+00
			38.9		2.0849e+00		1.0000e+00
			38.95		2.0627e+00		1.0000e+00
			39.0		2.0405e+00		1.0000e+00
			39.05		2.0183e+00		1.0000e+00
			39.1		1.9961e+00		1.0000e+00
			39.15		1.9739e+00		1.0000e+00
			39.2		1.9517e+00		1.0000e+00
			39.25		1.9296e+00		1.0000e+00
			39.3		1.9074e+00		1.0000e+00
			39.35		1.8853e+00		1.0000e+00
			39.4		1.8631e+00		1.0000e+00
			39.45		1.8401e+00		1.0000e+00
			39.5		1.8170e+00		1.0000e+00
			39.55		1.7940e+00		1.0000e+00
			39.6		1.7710e+00		1.0000e+00
			39.65		1.7479e+00		1.0000e+00
