BEGIN_SCAN_DATA
	FORMAT=CC-Export V1.9                  
	FILE_CREATION_DATE=
	LAST_MODIFIED=11-Jan-2023 10:50:22
	BEGIN_SCAN  1
		TASK_NAME=RayStation Phantom Profiles & PDDs
		PROGRAM=RayStation
		COMMENT=RayStation Script Export
		MEAS_DATE=11-Jan-2023 10:50:22
		LINAC=RayStation
		MODALITY=X
		ISOCENTER=1000.00
		INPLANE_AXIS=Y
		CROSSPLANE_AXIS=X
		DEPTH_AXIS=Z
		INPLANE_AXIS_DIR=GUN_TARGET
		CROSSPLANE_AXIS_DIR=LEFT_RIGHT
		DEPTH_AXIS_DIR=UP_DOWN
		ENERGY=6.3
		NOMINAL_DMAX=20.00
		SSD=1000.0
		SCD=1000.00
		WEDGE_ANGLE=0.00
		FIELD_INPLANE=200.0
		FIELD_CROSSPLANE=200.0
		FIELD_TYPE=IRREGULAR
		GANTRY=0.00
		GANTRY_UPRIGHT_POSITION=0
		GANTRY_ROTATION=CW
		COLL_ANGLE=0.00
		REF_FIELD_DEPTH=50.00
		REF_FIELD_DEFINED=ISOCENTER
		FIELD_INPLANE=200.0
		FIELD_CROSSPLANE=200.0
		SCAN_CURVETYPE=INPLANE_PROFILE
		SCAN_DEPTH=200.0
		SCAN_OFFAXIS_INPLANE=0.00
		SCAN_OFFAXIS_CROSSPLANE=0.00
		SCAN_ANGLE=0.00
		SCAN_DIAGONAL=NOT_DIAGONAL
		SCAN_DIRECTION=NEGATIVE
		MEAS_MEDIUM=WATER
		MEAS_UNIT=cGy
		INCLINATION_ANGLE=0.00
		PRESSURE=1013.20
		TEMPERATURE=20.00
		NORM_TEMPERATURE=20.00
		CORRECTION_FACTOR=1.0000;
		BEGIN_DATA
			-5.0		3.7927e-03		1.0000e+00
			-4.95		3.8075e-03		1.0000e+00
			-4.9		3.8223e-03		1.0000e+00
			-4.85		3.8371e-03		1.0000e+00
			-4.8		3.8519e-03		1.0000e+00
			-4.75		3.9722e-03		1.0000e+00
			-4.7		4.0924e-03		1.0000e+00
			-4.65		4.2127e-03		1.0000e+00
			-4.6		4.3330e-03		1.0000e+00
			-4.55		4.3473e-03		1.0000e+00
			-4.5		4.3617e-03		1.0000e+00
			-4.45		4.3760e-03		1.0000e+00
			-4.4		4.3904e-03		1.0000e+00
			-4.35		4.5260e-03		1.0000e+00
			-4.3		4.6615e-03		1.0000e+00
			-4.25		4.7971e-03		1.0000e+00
			-4.2		4.9327e-03		1.0000e+00
			-4.15		4.9760e-03		1.0000e+00
			-4.1		5.0193e-03		1.0000e+00
			-4.05		5.0626e-03		1.0000e+00
			-4.0		5.1060e-03		1.0000e+00
			-3.95		5.2251e-03		1.0000e+00
			-3.9		5.3442e-03		1.0000e+00
			-3.85		5.4633e-03		1.0000e+00
			-3.8		5.5824e-03		1.0000e+00
			-3.75		5.6789e-03		1.0000e+00
			-3.7		5.7754e-03		1.0000e+00
			-3.65		5.8719e-03		1.0000e+00
			-3.6		5.9684e-03		1.0000e+00
			-3.55		6.0422e-03		1.0000e+00
			-3.5		6.1159e-03		1.0000e+00
			-3.45		6.1897e-03		1.0000e+00
			-3.4		6.2635e-03		1.0000e+00
			-3.35		6.4418e-03		1.0000e+00
			-3.3		6.6202e-03		1.0000e+00
			-3.25		6.7986e-03		1.0000e+00
			-3.2		6.9770e-03		1.0000e+00
			-3.15		7.0139e-03		1.0000e+00
			-3.1		7.0507e-03		1.0000e+00
			-3.05		7.0876e-03		1.0000e+00
			-3.0		7.1245e-03		1.0000e+00
			-2.95		7.3718e-03		1.0000e+00
			-2.9		7.6191e-03		1.0000e+00
			-2.85		7.8664e-03		1.0000e+00
			-2.8		8.1137e-03		1.0000e+00
			-2.75		8.1346e-03		1.0000e+00
			-2.7		8.1555e-03		1.0000e+00
			-2.65		8.1764e-03		1.0000e+00
			-2.6		8.1973e-03		1.0000e+00
			-2.55		8.4722e-03		1.0000e+00
			-2.5		8.7472e-03		1.0000e+00
			-2.45		9.0221e-03		1.0000e+00
			-2.4		9.2971e-03		1.0000e+00
			-2.35		9.3780e-03		1.0000e+00
			-2.3		9.4590e-03		1.0000e+00
			-2.25		9.5400e-03		1.0000e+00
			-2.2		9.6210e-03		1.0000e+00
			-2.15		9.8552e-03		1.0000e+00
			-2.1		1.0089e-02		1.0000e+00
			-2.05		1.0324e-02		1.0000e+00
			-2.0		1.0558e-02		1.0000e+00
			-1.95		1.0745e-02		1.0000e+00
			-1.9		1.0931e-02		1.0000e+00
			-1.85		1.1118e-02		1.0000e+00
			-1.8		1.1305e-02		1.0000e+00
			-1.75		1.1446e-02		1.0000e+00
			-1.7		1.1587e-02		1.0000e+00
			-1.65		1.1728e-02		1.0000e+00
			-1.6		1.1869e-02		1.0000e+00
			-1.55		1.2221e-02		1.0000e+00
			-1.5		1.2572e-02		1.0000e+00
			-1.45		1.2924e-02		1.0000e+00
			-1.4		1.3276e-02		1.0000e+00
			-1.35		1.3345e-02		1.0000e+00
			-1.3		1.3415e-02		1.0000e+00
			-1.25		1.3484e-02		1.0000e+00
			-1.2		1.3553e-02		1.0000e+00
			-1.15		1.4025e-02		1.0000e+00
			-1.1		1.4496e-02		1.0000e+00
			-1.05		1.4967e-02		1.0000e+00
			-1.0		1.5439e-02		1.0000e+00
			-0.95		1.5478e-02		1.0000e+00
			-0.9		1.5518e-02		1.0000e+00
			-0.85		1.5558e-02		1.0000e+00
			-0.8		1.5598e-02		1.0000e+00
			-0.75		1.6107e-02		1.0000e+00
			-0.7		1.6617e-02		1.0000e+00
			-0.65		1.7126e-02		1.0000e+00
			-0.6		1.7636e-02		1.0000e+00
			-0.55		1.7789e-02		1.0000e+00
			-0.5		1.7942e-02		1.0000e+00
			-0.45		1.8095e-02		1.0000e+00
			-0.4		1.8248e-02		1.0000e+00
			-0.35		1.8667e-02		1.0000e+00
			-0.3		1.9086e-02		1.0000e+00
			-0.25		1.9505e-02		1.0000e+00
			-0.2		1.9925e-02		1.0000e+00
			-0.15		2.0268e-02		1.0000e+00
			-0.1		2.0611e-02		1.0000e+00
			-0.05		2.0954e-02		1.0000e+00
			-0.0		2.1297e-02		1.0000e+00
			0.05		2.1541e-02		1.0000e+00
			0.1		2.1785e-02		1.0000e+00
			0.15		2.2029e-02		1.0000e+00
			0.2		2.2273e-02		1.0000e+00
			0.25		2.2903e-02		1.0000e+00
			0.3		2.3533e-02		1.0000e+00
			0.35		2.4162e-02		1.0000e+00
			0.4		2.4792e-02		1.0000e+00
			0.45		2.4907e-02		1.0000e+00
			0.5		2.5021e-02		1.0000e+00
			0.55		2.5136e-02		1.0000e+00
			0.6		2.5250e-02		1.0000e+00
			0.65		2.6070e-02		1.0000e+00
			0.7		2.6890e-02		1.0000e+00
			0.75		2.7710e-02		1.0000e+00
			0.8		2.8530e-02		1.0000e+00
			0.85		2.8596e-02		1.0000e+00
			0.9		2.8663e-02		1.0000e+00
			0.95		2.8730e-02		1.0000e+00
			1.0		2.8796e-02		1.0000e+00
			1.05		2.9654e-02		1.0000e+00
			1.1		3.0512e-02		1.0000e+00
			1.15		3.1369e-02		1.0000e+00
			1.2		3.2227e-02		1.0000e+00
			1.25		3.2485e-02		1.0000e+00
			1.3		3.2742e-02		1.0000e+00
			1.35		3.3000e-02		1.0000e+00
			1.4		3.3257e-02		1.0000e+00
			1.45		3.3936e-02		1.0000e+00
			1.5		3.4614e-02		1.0000e+00
			1.55		3.5293e-02		1.0000e+00
			1.6		3.5971e-02		1.0000e+00
			1.65		3.6535e-02		1.0000e+00
			1.7		3.7098e-02		1.0000e+00
			1.75		3.7662e-02		1.0000e+00
			1.8		3.8226e-02		1.0000e+00
			1.85		3.8604e-02		1.0000e+00
			1.9		3.8983e-02		1.0000e+00
			1.95		3.9362e-02		1.0000e+00
			2.0		3.9740e-02		1.0000e+00
			2.05		4.0736e-02		1.0000e+00
			2.1		4.1733e-02		1.0000e+00
			2.15		4.2729e-02		1.0000e+00
			2.2		4.3725e-02		1.0000e+00
			2.25		4.3891e-02		1.0000e+00
			2.3		4.4057e-02		1.0000e+00
			2.35		4.4222e-02		1.0000e+00
			2.4		4.4388e-02		1.0000e+00
			2.45		4.5649e-02		1.0000e+00
			2.5		4.6909e-02		1.0000e+00
			2.55		4.8170e-02		1.0000e+00
			2.6		4.9430e-02		1.0000e+00
			2.65		4.9529e-02		1.0000e+00
			2.7		4.9627e-02		1.0000e+00
			2.75		4.9726e-02		1.0000e+00
			2.8		4.9825e-02		1.0000e+00
			2.85		5.1112e-02		1.0000e+00
			2.9		5.2400e-02		1.0000e+00
			2.95		5.3687e-02		1.0000e+00
			3.0		5.4975e-02		1.0000e+00
			3.05		5.5354e-02		1.0000e+00
			3.1		5.5734e-02		1.0000e+00
			3.15		5.6113e-02		1.0000e+00
			3.2		5.6492e-02		1.0000e+00
			3.25		5.7491e-02		1.0000e+00
			3.3		5.8490e-02		1.0000e+00
			3.35		5.9489e-02		1.0000e+00
			3.4		6.0488e-02		1.0000e+00
			3.45		6.1297e-02		1.0000e+00
			3.5		6.2106e-02		1.0000e+00
			3.55		6.2916e-02		1.0000e+00
			3.6		6.3725e-02		1.0000e+00
			3.65		6.4286e-02		1.0000e+00
			3.7		6.4847e-02		1.0000e+00
			3.75		6.5408e-02		1.0000e+00
			3.8		6.5969e-02		1.0000e+00
			3.85		6.7357e-02		1.0000e+00
			3.9		6.8745e-02		1.0000e+00
			3.95		7.0132e-02		1.0000e+00
			4.0		7.1520e-02		1.0000e+00
			4.05		7.1781e-02		1.0000e+00
			4.1		7.2042e-02		1.0000e+00
			4.15		7.2303e-02		1.0000e+00
			4.2		7.2563e-02		1.0000e+00
			4.25		7.4250e-02		1.0000e+00
			4.3		7.5937e-02		1.0000e+00
			4.35		7.7623e-02		1.0000e+00
			4.4		7.9310e-02		1.0000e+00
			4.45		1.1459e-01		1.0000e+00
			4.5		1.4987e-01		1.0000e+00
			4.55		1.8516e-01		1.0000e+00
			4.6		2.2044e-01		1.0000e+00
			4.65		2.3890e-01		1.0000e+00
			4.7		2.5737e-01		1.0000e+00
			4.75		2.7584e-01		1.0000e+00
			4.8		2.9430e-01		1.0000e+00
			4.85		3.1278e-01		1.0000e+00
			4.9		3.3126e-01		1.0000e+00
			4.95		3.4974e-01		1.0000e+00
			5.0		3.6822e-01		1.0000e+00
			5.05		3.7065e-01		1.0000e+00
			5.1		3.7308e-01		1.0000e+00
			5.15		3.7552e-01		1.0000e+00
			5.2		3.7795e-01		1.0000e+00
			5.25		3.8038e-01		1.0000e+00
			5.3		3.8281e-01		1.0000e+00
			5.35		3.8525e-01		1.0000e+00
			5.4		3.8768e-01		1.0000e+00
			5.45		3.9011e-01		1.0000e+00
			5.5		3.9255e-01		1.0000e+00
			5.55		3.9498e-01		1.0000e+00
			5.6		3.9742e-01		1.0000e+00
			5.65		3.9985e-01		1.0000e+00
			5.7		4.0229e-01		1.0000e+00
			5.75		4.0473e-01		1.0000e+00
			5.8		4.0716e-01		1.0000e+00
			5.85		4.1056e-01		1.0000e+00
			5.9		4.1395e-01		1.0000e+00
			5.95		4.1734e-01		1.0000e+00
			6.0		4.2073e-01		1.0000e+00
			6.05		4.2413e-01		1.0000e+00
			6.1		4.2753e-01		1.0000e+00
			6.15		4.3092e-01		1.0000e+00
			6.2		4.3432e-01		1.0000e+00
			6.25		4.3771e-01		1.0000e+00
			6.3		4.4111e-01		1.0000e+00
			6.35		4.4451e-01		1.0000e+00
			6.4		4.4790e-01		1.0000e+00
			6.45		4.5130e-01		1.0000e+00
			6.5		4.5470e-01		1.0000e+00
			6.55		4.5810e-01		1.0000e+00
			6.6		4.6150e-01		1.0000e+00
			6.65		4.6525e-01		1.0000e+00
			6.7		4.6899e-01		1.0000e+00
			6.75		4.7274e-01		1.0000e+00
			6.8		4.7649e-01		1.0000e+00
			6.85		4.8023e-01		1.0000e+00
			6.9		4.8398e-01		1.0000e+00
			6.95		4.8773e-01		1.0000e+00
			7.0		4.9148e-01		1.0000e+00
			7.05		4.9523e-01		1.0000e+00
			7.1		4.9898e-01		1.0000e+00
			7.15		5.0273e-01		1.0000e+00
			7.2		5.0648e-01		1.0000e+00
			7.25		5.1023e-01		1.0000e+00
			7.3		5.1398e-01		1.0000e+00
			7.35		5.1774e-01		1.0000e+00
			7.4		5.2149e-01		1.0000e+00
			7.45		5.2759e-01		1.0000e+00
			7.5		5.3369e-01		1.0000e+00
			7.55		5.3979e-01		1.0000e+00
			7.6		5.4589e-01		1.0000e+00
			7.65		5.5199e-01		1.0000e+00
			7.7		5.5809e-01		1.0000e+00
			7.75		5.6419e-01		1.0000e+00
			7.8		5.7029e-01		1.0000e+00
			7.85		5.7640e-01		1.0000e+00
			7.9		5.8251e-01		1.0000e+00
			7.95		5.8861e-01		1.0000e+00
			8.0		5.9472e-01		1.0000e+00
			8.05		6.0083e-01		1.0000e+00
			8.1		6.0693e-01		1.0000e+00
			8.15		6.1304e-01		1.0000e+00
			8.2		6.1915e-01		1.0000e+00
			8.25		6.2514e-01		1.0000e+00
			8.3		6.3113e-01		1.0000e+00
			8.35		6.3711e-01		1.0000e+00
			8.4		6.4310e-01		1.0000e+00
			8.45		6.4909e-01		1.0000e+00
			8.5		6.5508e-01		1.0000e+00
			8.55		6.6107e-01		1.0000e+00
			8.6		6.6706e-01		1.0000e+00
			8.65		6.7306e-01		1.0000e+00
			8.7		6.7905e-01		1.0000e+00
			8.75		6.8504e-01		1.0000e+00
			8.8		6.9104e-01		1.0000e+00
			8.85		6.9703e-01		1.0000e+00
			8.9		7.0303e-01		1.0000e+00
			8.95		7.0902e-01		1.0000e+00
			9.0		7.1502e-01		1.0000e+00
			9.05		7.4107e-01		1.0000e+00
			9.1		7.6712e-01		1.0000e+00
			9.15		7.9317e-01		1.0000e+00
			9.2		8.1922e-01		1.0000e+00
			9.25		8.4529e-01		1.0000e+00
			9.3		8.7135e-01		1.0000e+00
			9.35		8.9742e-01		1.0000e+00
			9.4		9.2348e-01		1.0000e+00
			9.45		9.4918e-01		1.0000e+00
			9.5		9.7487e-01		1.0000e+00
			9.55		1.0006e+00		1.0000e+00
			9.6		1.0263e+00		1.0000e+00
			9.65		1.0517e+00		1.0000e+00
			9.7		1.0771e+00		1.0000e+00
			9.75		1.1026e+00		1.0000e+00
			9.8		1.1280e+00		1.0000e+00
			9.85		1.3713e+00		1.0000e+00
			9.9		1.6145e+00		1.0000e+00
			9.95		1.8577e+00		1.0000e+00
			10.0		2.1009e+00		1.0000e+00
			10.05		2.4250e+00		1.0000e+00
			10.1		2.7490e+00		1.0000e+00
			10.15		3.0731e+00		1.0000e+00
			10.2		3.3971e+00		1.0000e+00
			10.25		3.5247e+00		1.0000e+00
			10.3		3.6524e+00		1.0000e+00
			10.35		3.7800e+00		1.0000e+00
			10.4		3.9077e+00		1.0000e+00
			10.45		3.8327e+00		1.0000e+00
			10.5		3.7577e+00		1.0000e+00
			10.55		3.6827e+00		1.0000e+00
			10.6		3.6077e+00		1.0000e+00
			10.65		3.2862e+00		1.0000e+00
			10.7		2.9647e+00		1.0000e+00
			10.75		2.6432e+00		1.0000e+00
			10.8		2.3217e+00		1.0000e+00
			10.85		2.1364e+00		1.0000e+00
			10.9		1.9511e+00		1.0000e+00
			10.95		1.7658e+00		1.0000e+00
			11.0		1.5805e+00		1.0000e+00
			11.05		1.5538e+00		1.0000e+00
			11.1		1.5270e+00		1.0000e+00
			11.15		1.5003e+00		1.0000e+00
			11.2		1.4735e+00		1.0000e+00
			11.25		1.5922e+00		1.0000e+00
			11.3		1.7108e+00		1.0000e+00
			11.35		1.8294e+00		1.0000e+00
			11.4		1.9480e+00		1.0000e+00
			11.45		2.2828e+00		1.0000e+00
			11.5		2.6177e+00		1.0000e+00
			11.55		2.9526e+00		1.0000e+00
			11.6		3.2875e+00		1.0000e+00
			11.65		3.4762e+00		1.0000e+00
			11.7		3.6650e+00		1.0000e+00
			11.75		3.8538e+00		1.0000e+00
			11.8		4.0425e+00		1.0000e+00
			11.85		4.0461e+00		1.0000e+00
			11.9		4.0497e+00		1.0000e+00
			11.95		4.0533e+00		1.0000e+00
			12.0		4.0568e+00		1.0000e+00
			12.05		3.8454e+00		1.0000e+00
			12.1		3.6340e+00		1.0000e+00
			12.15		3.4226e+00		1.0000e+00
			12.2		3.2113e+00		1.0000e+00
			12.25		2.9092e+00		1.0000e+00
			12.3		2.6072e+00		1.0000e+00
			12.35		2.3051e+00		1.0000e+00
			12.4		2.0031e+00		1.0000e+00
			12.45		1.9190e+00		1.0000e+00
			12.5		1.8349e+00		1.0000e+00
			12.55		1.7508e+00		1.0000e+00
			12.6		1.6667e+00		1.0000e+00
			12.65		1.6994e+00		1.0000e+00
			12.7		1.7321e+00		1.0000e+00
			12.75		1.7647e+00		1.0000e+00
			12.8		1.7974e+00		1.0000e+00
			12.85		2.0338e+00		1.0000e+00
			12.9		2.2702e+00		1.0000e+00
			12.95		2.5065e+00		1.0000e+00
			13.0		2.7429e+00		1.0000e+00
			13.05		3.0487e+00		1.0000e+00
			13.1		3.3544e+00		1.0000e+00
			13.15		3.6601e+00		1.0000e+00
			13.2		3.9659e+00		1.0000e+00
			13.25		4.0539e+00		1.0000e+00
			13.3		4.1420e+00		1.0000e+00
			13.35		4.2300e+00		1.0000e+00
			13.4		4.3181e+00		1.0000e+00
			13.45		4.2237e+00		1.0000e+00
			13.5		4.1293e+00		1.0000e+00
			13.55		4.0349e+00		1.0000e+00
			13.6		3.9405e+00		1.0000e+00
			13.65		3.6174e+00		1.0000e+00
			13.7		3.2944e+00		1.0000e+00
			13.75		2.9713e+00		1.0000e+00
			13.8		2.6482e+00		1.0000e+00
			13.85		2.4568e+00		1.0000e+00
			13.9		2.2655e+00		1.0000e+00
			13.95		2.0741e+00		1.0000e+00
			14.0		1.8828e+00		1.0000e+00
			14.05		1.8597e+00		1.0000e+00
			14.1		1.8365e+00		1.0000e+00
			14.15		1.8134e+00		1.0000e+00
			14.2		1.7903e+00		1.0000e+00
			14.25		1.9107e+00		1.0000e+00
			14.3		2.0312e+00		1.0000e+00
			14.35		2.1516e+00		1.0000e+00
			14.4		2.2721e+00		1.0000e+00
			14.45		2.6102e+00		1.0000e+00
			14.5		2.9484e+00		1.0000e+00
			14.55		3.2866e+00		1.0000e+00
			14.6		3.6248e+00		1.0000e+00
			14.65		3.8095e+00		1.0000e+00
			14.7		3.9942e+00		1.0000e+00
			14.75		4.1789e+00		1.0000e+00
			14.8		4.3635e+00		1.0000e+00
			14.85		4.3555e+00		1.0000e+00
			14.9		4.3474e+00		1.0000e+00
			14.95		4.3393e+00		1.0000e+00
			15.0		4.3312e+00		1.0000e+00
			15.05		4.1110e+00		1.0000e+00
			15.1		3.8907e+00		1.0000e+00
			15.15		3.6704e+00		1.0000e+00
			15.2		3.4501e+00		1.0000e+00
			15.25		3.1478e+00		1.0000e+00
			15.3		2.8454e+00		1.0000e+00
			15.35		2.5431e+00		1.0000e+00
			15.4		2.2407e+00		1.0000e+00
			15.45		2.1599e+00		1.0000e+00
			15.5		2.0791e+00		1.0000e+00
			15.55		1.9983e+00		1.0000e+00
			15.6		1.9175e+00		1.0000e+00
			15.65		1.9582e+00		1.0000e+00
			15.7		1.9989e+00		1.0000e+00
			15.75		2.0397e+00		1.0000e+00
			15.8		2.0804e+00		1.0000e+00
			15.85		2.3172e+00		1.0000e+00
			15.9		2.5540e+00		1.0000e+00
			15.95		2.7908e+00		1.0000e+00
			16.0		3.0275e+00		1.0000e+00
			16.05		3.3198e+00		1.0000e+00
			16.1		3.6120e+00		1.0000e+00
			16.15		3.9043e+00		1.0000e+00
			16.2		4.1965e+00		1.0000e+00
			16.25		4.2733e+00		1.0000e+00
			16.3		4.3502e+00		1.0000e+00
			16.35		4.4270e+00		1.0000e+00
			16.4		4.5038e+00		1.0000e+00
			16.45		4.4059e+00		1.0000e+00
			16.5		4.3079e+00		1.0000e+00
			16.55		4.2099e+00		1.0000e+00
			16.6		4.1120e+00		1.0000e+00
			16.65		3.7913e+00		1.0000e+00
			16.7		3.4706e+00		1.0000e+00
			16.75		3.1500e+00		1.0000e+00
			16.8		2.8293e+00		1.0000e+00
			16.85		2.6497e+00		1.0000e+00
			16.9		2.4700e+00		1.0000e+00
			16.95		2.2904e+00		1.0000e+00
			17.0		2.1108e+00		1.0000e+00
			17.05		2.0908e+00		1.0000e+00
			17.1		2.0708e+00		1.0000e+00
			17.15		2.0508e+00		1.0000e+00
			17.2		2.0308e+00		1.0000e+00
			17.25		2.1448e+00		1.0000e+00
			17.3		2.2588e+00		1.0000e+00
			17.35		2.3728e+00		1.0000e+00
			17.4		2.4868e+00		1.0000e+00
			17.45		2.8126e+00		1.0000e+00
			17.5		3.1383e+00		1.0000e+00
			17.55		3.4640e+00		1.0000e+00
			17.6		3.7897e+00		1.0000e+00
			17.65		3.9700e+00		1.0000e+00
			17.7		4.1502e+00		1.0000e+00
			17.75		4.3305e+00		1.0000e+00
			17.8		4.5107e+00		1.0000e+00
			17.85		4.5081e+00		1.0000e+00
			17.9		4.5055e+00		1.0000e+00
			17.95		4.5029e+00		1.0000e+00
			18.0		4.5002e+00		1.0000e+00
			18.05		4.2894e+00		1.0000e+00
			18.1		4.0787e+00		1.0000e+00
			18.15		3.8679e+00		1.0000e+00
			18.2		3.6571e+00		1.0000e+00
			18.25		3.3550e+00		1.0000e+00
			18.3		3.0530e+00		1.0000e+00
			18.35		2.7510e+00		1.0000e+00
			18.4		2.4489e+00		1.0000e+00
			18.45		2.3582e+00		1.0000e+00
			18.5		2.2674e+00		1.0000e+00
			18.55		2.1766e+00		1.0000e+00
			18.6		2.0858e+00		1.0000e+00
			18.65		2.1106e+00		1.0000e+00
			18.7		2.1354e+00		1.0000e+00
			18.75		2.1602e+00		1.0000e+00
			18.8		2.1849e+00		1.0000e+00
			18.85		2.4214e+00		1.0000e+00
			18.9		2.6579e+00		1.0000e+00
			18.95		2.8944e+00		1.0000e+00
			19.0		3.1309e+00		1.0000e+00
			19.05		3.4375e+00		1.0000e+00
			19.1		3.7442e+00		1.0000e+00
			19.15		4.0508e+00		1.0000e+00
			19.2		4.3574e+00		1.0000e+00
			19.25		4.4491e+00		1.0000e+00
			19.3		4.5407e+00		1.0000e+00
			19.35		4.6323e+00		1.0000e+00
			19.4		4.7239e+00		1.0000e+00
			19.45		4.6249e+00		1.0000e+00
			19.5		4.5258e+00		1.0000e+00
			19.55		4.4267e+00		1.0000e+00
			19.6		4.3277e+00		1.0000e+00
			19.65		3.9812e+00		1.0000e+00
			19.7		3.6348e+00		1.0000e+00
			19.75		3.2884e+00		1.0000e+00
			19.8		2.9419e+00		1.0000e+00
			19.85		2.7479e+00		1.0000e+00
			19.9		2.5539e+00		1.0000e+00
			19.95		2.3598e+00		1.0000e+00
			20.0		2.1658e+00		1.0000e+00
			20.05		2.1435e+00		1.0000e+00
			20.1		2.1211e+00		1.0000e+00
			20.15		2.0988e+00		1.0000e+00
			20.2		2.0765e+00		1.0000e+00
			20.25		2.2154e+00		1.0000e+00
			20.3		2.3544e+00		1.0000e+00
			20.35		2.4933e+00		1.0000e+00
			20.4		2.6323e+00		1.0000e+00
			20.45		2.9804e+00		1.0000e+00
			20.5		3.3285e+00		1.0000e+00
			20.55		3.6765e+00		1.0000e+00
			20.6		4.0246e+00		1.0000e+00
			20.65		4.2006e+00		1.0000e+00
			20.7		4.3765e+00		1.0000e+00
			20.75		4.5525e+00		1.0000e+00
			20.8		4.7284e+00		1.0000e+00
			20.85		4.6949e+00		1.0000e+00
			20.9		4.6614e+00		1.0000e+00
			20.95		4.6279e+00		1.0000e+00
			21.0		4.5944e+00		1.0000e+00
			21.05		4.3571e+00		1.0000e+00
			21.1		4.1197e+00		1.0000e+00
			21.15		3.8823e+00		1.0000e+00
			21.2		3.6449e+00		1.0000e+00
			21.25		3.3457e+00		1.0000e+00
			21.3		3.0465e+00		1.0000e+00
			21.35		2.7473e+00		1.0000e+00
			21.4		2.4481e+00		1.0000e+00
			21.45		2.3821e+00		1.0000e+00
			21.5		2.3161e+00		1.0000e+00
			21.55		2.2502e+00		1.0000e+00
			21.6		2.1842e+00		1.0000e+00
			21.65		2.2352e+00		1.0000e+00
			21.7		2.2862e+00		1.0000e+00
			21.75		2.3372e+00		1.0000e+00
			21.8		2.3882e+00		1.0000e+00
			21.85		2.6211e+00		1.0000e+00
			21.9		2.8539e+00		1.0000e+00
			21.95		3.0867e+00		1.0000e+00
			22.0		3.3196e+00		1.0000e+00
			22.05		3.5990e+00		1.0000e+00
			22.1		3.8783e+00		1.0000e+00
			22.15		4.1577e+00		1.0000e+00
			22.2		4.4371e+00		1.0000e+00
			22.25		4.5023e+00		1.0000e+00
			22.3		4.5675e+00		1.0000e+00
			22.35		4.6327e+00		1.0000e+00
			22.4		4.6978e+00		1.0000e+00
			22.45		4.5944e+00		1.0000e+00
			22.5		4.4910e+00		1.0000e+00
			22.55		4.3876e+00		1.0000e+00
			22.6		4.2841e+00		1.0000e+00
			22.65		3.9640e+00		1.0000e+00
			22.7		3.6439e+00		1.0000e+00
			22.75		3.3238e+00		1.0000e+00
			22.8		3.0037e+00		1.0000e+00
			22.85		2.8214e+00		1.0000e+00
			22.9		2.6391e+00		1.0000e+00
			22.95		2.4568e+00		1.0000e+00
			23.0		2.2745e+00		1.0000e+00
			23.05		2.2566e+00		1.0000e+00
			23.1		2.2388e+00		1.0000e+00
			23.15		2.2210e+00		1.0000e+00
			23.2		2.2031e+00		1.0000e+00
			23.25		2.3253e+00		1.0000e+00
			23.3		2.4474e+00		1.0000e+00
			23.35		2.5695e+00		1.0000e+00
			23.4		2.6916e+00		1.0000e+00
			23.45		3.0252e+00		1.0000e+00
			23.5		3.3587e+00		1.0000e+00
			23.55		3.6923e+00		1.0000e+00
			23.6		4.0258e+00		1.0000e+00
			23.65		4.1969e+00		1.0000e+00
			23.7		4.3679e+00		1.0000e+00
			23.75		4.5390e+00		1.0000e+00
			23.8		4.7101e+00		1.0000e+00
			23.85		4.6844e+00		1.0000e+00
			23.9		4.6586e+00		1.0000e+00
			23.95		4.6329e+00		1.0000e+00
			24.0		4.6072e+00		1.0000e+00
			24.05		4.3778e+00		1.0000e+00
			24.1		4.1485e+00		1.0000e+00
			24.15		3.9191e+00		1.0000e+00
			24.2		3.6897e+00		1.0000e+00
			24.25		3.3914e+00		1.0000e+00
			24.3		3.0930e+00		1.0000e+00
			24.35		2.7946e+00		1.0000e+00
			24.4		2.4962e+00		1.0000e+00
			24.45		2.4257e+00		1.0000e+00
			24.5		2.3551e+00		1.0000e+00
			24.55		2.2846e+00		1.0000e+00
			24.6		2.2140e+00		1.0000e+00
			24.65		2.2609e+00		1.0000e+00
			24.7		2.3077e+00		1.0000e+00
			24.75		2.3546e+00		1.0000e+00
			24.8		2.4014e+00		1.0000e+00
			24.85		2.6351e+00		1.0000e+00
			24.9		2.8688e+00		1.0000e+00
			24.95		3.1025e+00		1.0000e+00
			25.0		3.3362e+00		1.0000e+00
			25.05		3.6124e+00		1.0000e+00
			25.1		3.8885e+00		1.0000e+00
			25.15		4.1646e+00		1.0000e+00
			25.2		4.4407e+00		1.0000e+00
			25.25		4.5060e+00		1.0000e+00
			25.3		4.5713e+00		1.0000e+00
			25.35		4.6366e+00		1.0000e+00
			25.4		4.7018e+00		1.0000e+00
			25.45		4.5980e+00		1.0000e+00
			25.5		4.4941e+00		1.0000e+00
			25.55		4.3902e+00		1.0000e+00
			25.6		4.2863e+00		1.0000e+00
			25.65		3.9654e+00		1.0000e+00
			25.7		3.6444e+00		1.0000e+00
			25.75		3.3235e+00		1.0000e+00
			25.8		3.0025e+00		1.0000e+00
			25.85		2.8229e+00		1.0000e+00
			25.9		2.6433e+00		1.0000e+00
			25.95		2.4636e+00		1.0000e+00
			26.0		2.2840e+00		1.0000e+00
			26.05		2.2648e+00		1.0000e+00
			26.1		2.2457e+00		1.0000e+00
			26.15		2.2265e+00		1.0000e+00
			26.2		2.2073e+00		1.0000e+00
			26.25		2.3307e+00		1.0000e+00
			26.3		2.4540e+00		1.0000e+00
			26.35		2.5773e+00		1.0000e+00
			26.4		2.7007e+00		1.0000e+00
			26.45		3.0337e+00		1.0000e+00
			26.5		3.3666e+00		1.0000e+00
			26.55		3.6996e+00		1.0000e+00
			26.6		4.0326e+00		1.0000e+00
			26.65		4.2010e+00		1.0000e+00
			26.7		4.3695e+00		1.0000e+00
			26.75		4.5380e+00		1.0000e+00
			26.8		4.7064e+00		1.0000e+00
			26.85		4.6815e+00		1.0000e+00
			26.9		4.6566e+00		1.0000e+00
			26.95		4.6317e+00		1.0000e+00
			27.0		4.6068e+00		1.0000e+00
			27.05		4.3743e+00		1.0000e+00
			27.1		4.1419e+00		1.0000e+00
			27.15		3.9094e+00		1.0000e+00
			27.2		3.6769e+00		1.0000e+00
			27.25		3.3794e+00		1.0000e+00
			27.3		3.0819e+00		1.0000e+00
			27.35		2.7843e+00		1.0000e+00
			27.4		2.4868e+00		1.0000e+00
			27.45		2.4163e+00		1.0000e+00
			27.5		2.3458e+00		1.0000e+00
			27.55		2.2753e+00		1.0000e+00
			27.6		2.2048e+00		1.0000e+00
			27.65		2.2500e+00		1.0000e+00
			27.7		2.2952e+00		1.0000e+00
			27.75		2.3404e+00		1.0000e+00
			27.8		2.3856e+00		1.0000e+00
			27.85		2.6198e+00		1.0000e+00
			27.9		2.8540e+00		1.0000e+00
			27.95		3.0882e+00		1.0000e+00
			28.0		3.3224e+00		1.0000e+00
			28.05		3.5973e+00		1.0000e+00
			28.1		3.8721e+00		1.0000e+00
			28.15		4.1470e+00		1.0000e+00
			28.2		4.4218e+00		1.0000e+00
			28.25		4.4892e+00		1.0000e+00
			28.3		4.5566e+00		1.0000e+00
			28.35		4.6239e+00		1.0000e+00
			28.4		4.6913e+00		1.0000e+00
			28.45		4.5891e+00		1.0000e+00
			28.5		4.4868e+00		1.0000e+00
			28.55		4.3846e+00		1.0000e+00
			28.6		4.2824e+00		1.0000e+00
			28.65		3.9601e+00		1.0000e+00
			28.7		3.6378e+00		1.0000e+00
			28.75		3.3155e+00		1.0000e+00
			28.8		2.9932e+00		1.0000e+00
			28.85		2.8026e+00		1.0000e+00
			28.9		2.6121e+00		1.0000e+00
			28.95		2.4215e+00		1.0000e+00
			29.0		2.2309e+00		1.0000e+00
			29.05		2.2017e+00		1.0000e+00
			29.1		2.1725e+00		1.0000e+00
			29.15		2.1434e+00		1.0000e+00
			29.2		2.1142e+00		1.0000e+00
			29.25		2.2409e+00		1.0000e+00
			29.3		2.3676e+00		1.0000e+00
			29.35		2.4943e+00		1.0000e+00
			29.4		2.6210e+00		1.0000e+00
			29.45		2.9629e+00		1.0000e+00
			29.5		3.3048e+00		1.0000e+00
			29.55		3.6468e+00		1.0000e+00
			29.6		3.9887e+00		1.0000e+00
			29.65		4.1750e+00		1.0000e+00
			29.7		4.3612e+00		1.0000e+00
			29.75		4.5475e+00		1.0000e+00
			29.8		4.7338e+00		1.0000e+00
			29.85		4.7019e+00		1.0000e+00
			29.9		4.6701e+00		1.0000e+00
			29.95		4.6382e+00		1.0000e+00
			30.0		4.6063e+00		1.0000e+00
			30.05		4.3546e+00		1.0000e+00
			30.1		4.1028e+00		1.0000e+00
			30.15		3.8510e+00		1.0000e+00
			30.2		3.5992e+00		1.0000e+00
			30.25		3.2772e+00		1.0000e+00
			30.3		2.9552e+00		1.0000e+00
			30.35		2.6332e+00		1.0000e+00
			30.4		2.3112e+00		1.0000e+00
			30.45		2.2406e+00		1.0000e+00
			30.5		2.1700e+00		1.0000e+00
			30.55		2.0993e+00		1.0000e+00
			30.6		2.0287e+00		1.0000e+00
			30.65		2.0934e+00		1.0000e+00
			30.7		2.1581e+00		1.0000e+00
			30.75		2.2229e+00		1.0000e+00
			30.8		2.2876e+00		1.0000e+00
			30.85		2.5493e+00		1.0000e+00
			30.9		2.8110e+00		1.0000e+00
			30.95		3.0727e+00		1.0000e+00
			31.0		3.3344e+00		1.0000e+00
			31.05		3.6096e+00		1.0000e+00
			31.1		3.8848e+00		1.0000e+00
			31.15		4.1599e+00		1.0000e+00
			31.2		4.4351e+00		1.0000e+00
			31.25		4.4719e+00		1.0000e+00
			31.3		4.5088e+00		1.0000e+00
			31.35		4.5456e+00		1.0000e+00
			31.4		4.5824e+00		1.0000e+00
			31.45		4.4529e+00		1.0000e+00
			31.5		4.3233e+00		1.0000e+00
			31.55		4.1937e+00		1.0000e+00
			31.6		4.0641e+00		1.0000e+00
			31.65		3.7351e+00		1.0000e+00
			31.7		3.4060e+00		1.0000e+00
			31.75		3.0769e+00		1.0000e+00
			31.8		2.7478e+00		1.0000e+00
			31.85		2.5843e+00		1.0000e+00
			31.9		2.4207e+00		1.0000e+00
			31.95		2.2571e+00		1.0000e+00
			32.0		2.0935e+00		1.0000e+00
			32.05		2.0907e+00		1.0000e+00
			32.1		2.0879e+00		1.0000e+00
			32.15		2.0852e+00		1.0000e+00
			32.2		2.0824e+00		1.0000e+00
			32.25		2.2088e+00		1.0000e+00
			32.3		2.3353e+00		1.0000e+00
			32.35		2.4618e+00		1.0000e+00
			32.4		2.5882e+00		1.0000e+00
			32.45		2.9111e+00		1.0000e+00
			32.5		3.2340e+00		1.0000e+00
			32.55		3.5568e+00		1.0000e+00
			32.6		3.8797e+00		1.0000e+00
			32.65		4.0343e+00		1.0000e+00
			32.7		4.1890e+00		1.0000e+00
			32.75		4.3436e+00		1.0000e+00
			32.8		4.4982e+00		1.0000e+00
			32.85		4.4655e+00		1.0000e+00
			32.9		4.4327e+00		1.0000e+00
			32.95		4.4000e+00		1.0000e+00
			33.0		4.3672e+00		1.0000e+00
			33.05		4.1326e+00		1.0000e+00
			33.1		3.8981e+00		1.0000e+00
			33.15		3.6635e+00		1.0000e+00
			33.2		3.4289e+00		1.0000e+00
			33.25		3.1291e+00		1.0000e+00
			33.3		2.8293e+00		1.0000e+00
			33.35		2.5295e+00		1.0000e+00
			33.4		2.2297e+00		1.0000e+00
			33.45		2.1565e+00		1.0000e+00
			33.5		2.0832e+00		1.0000e+00
			33.55		2.0099e+00		1.0000e+00
			33.6		1.9367e+00		1.0000e+00
			33.65		1.9866e+00		1.0000e+00
			33.7		2.0365e+00		1.0000e+00
			33.75		2.0864e+00		1.0000e+00
			33.8		2.1363e+00		1.0000e+00
			33.85		2.3806e+00		1.0000e+00
			33.9		2.6248e+00		1.0000e+00
			33.95		2.8690e+00		1.0000e+00
			34.0		3.1133e+00		1.0000e+00
			34.05		3.3878e+00		1.0000e+00
			34.1		3.6623e+00		1.0000e+00
			34.15		3.9368e+00		1.0000e+00
			34.2		4.2113e+00		1.0000e+00
			34.25		4.2618e+00		1.0000e+00
			34.3		4.3124e+00		1.0000e+00
			34.35		4.3630e+00		1.0000e+00
			34.4		4.4136e+00		1.0000e+00
			34.45		4.2920e+00		1.0000e+00
			34.5		4.1705e+00		1.0000e+00
			34.55		4.0490e+00		1.0000e+00
			34.6		3.9275e+00		1.0000e+00
			34.65		3.5948e+00		1.0000e+00
			34.7		3.2621e+00		1.0000e+00
			34.75		2.9293e+00		1.0000e+00
			34.8		2.5966e+00		1.0000e+00
			34.85		2.4194e+00		1.0000e+00
			34.9		2.2422e+00		1.0000e+00
			34.95		2.0649e+00		1.0000e+00
			35.0		1.8877e+00		1.0000e+00
			35.05		1.8778e+00		1.0000e+00
			35.1		1.8680e+00		1.0000e+00
			35.15		1.8581e+00		1.0000e+00
			35.2		1.8483e+00		1.0000e+00
			35.25		1.9765e+00		1.0000e+00
			35.3		2.1048e+00		1.0000e+00
			35.35		2.2331e+00		1.0000e+00
			35.4		2.3613e+00		1.0000e+00
			35.45		2.6908e+00		1.0000e+00
			35.5		3.0202e+00		1.0000e+00
			35.55		3.3497e+00		1.0000e+00
			35.6		3.6791e+00		1.0000e+00
			35.65		3.8397e+00		1.0000e+00
			35.7		4.0002e+00		1.0000e+00
			35.75		4.1607e+00		1.0000e+00
			35.8		4.3213e+00		1.0000e+00
			35.85		4.2827e+00		1.0000e+00
			35.9		4.2440e+00		1.0000e+00
			35.95		4.2054e+00		1.0000e+00
			36.0		4.1668e+00		1.0000e+00
			36.05		3.9195e+00		1.0000e+00
			36.1		3.6722e+00		1.0000e+00
			36.15		3.4250e+00		1.0000e+00
			36.2		3.1777e+00		1.0000e+00
			36.25		2.8686e+00		1.0000e+00
			36.3		2.5594e+00		1.0000e+00
			36.35		2.2503e+00		1.0000e+00
			36.4		1.9412e+00		1.0000e+00
			36.45		1.8722e+00		1.0000e+00
			36.5		1.8032e+00		1.0000e+00
			36.55		1.7341e+00		1.0000e+00
			36.6		1.6651e+00		1.0000e+00
			36.65		1.7210e+00		1.0000e+00
			36.7		1.7769e+00		1.0000e+00
			36.75		1.8328e+00		1.0000e+00
			36.8		1.8887e+00		1.0000e+00
			36.85		2.1388e+00		1.0000e+00
			36.9		2.3889e+00		1.0000e+00
			36.95		2.6391e+00		1.0000e+00
			37.0		2.8892e+00		1.0000e+00
			37.05		3.1614e+00		1.0000e+00
			37.1		3.4335e+00		1.0000e+00
			37.15		3.7056e+00		1.0000e+00
			37.2		3.9777e+00		1.0000e+00
			37.25		4.0161e+00		1.0000e+00
			37.3		4.0545e+00		1.0000e+00
			37.35		4.0929e+00		1.0000e+00
			37.4		4.1313e+00		1.0000e+00
			37.45		3.9971e+00		1.0000e+00
			37.5		3.8629e+00		1.0000e+00
			37.55		3.7287e+00		1.0000e+00
			37.6		3.5946e+00		1.0000e+00
			37.65		3.2608e+00		1.0000e+00
			37.7		2.9271e+00		1.0000e+00
			37.75		2.5934e+00		1.0000e+00
			37.8		2.2597e+00		1.0000e+00
			37.85		2.0891e+00		1.0000e+00
			37.9		1.9186e+00		1.0000e+00
			37.95		1.7480e+00		1.0000e+00
			38.0		1.5775e+00		1.0000e+00
			38.05		1.5717e+00		1.0000e+00
			38.1		1.5659e+00		1.0000e+00
			38.15		1.5600e+00		1.0000e+00
			38.2		1.5542e+00		1.0000e+00
			38.25		1.6843e+00		1.0000e+00
			38.3		1.8143e+00		1.0000e+00
			38.35		1.9443e+00		1.0000e+00
			38.4		2.0743e+00		1.0000e+00
			38.45		2.3995e+00		1.0000e+00
			38.5		2.7246e+00		1.0000e+00
			38.55		3.0497e+00		1.0000e+00
			38.6		3.3748e+00		1.0000e+00
			38.65		3.5259e+00		1.0000e+00
			38.7		3.6770e+00		1.0000e+00
			38.75		3.8281e+00		1.0000e+00
			38.8		3.9791e+00		1.0000e+00
			38.85		3.9303e+00		1.0000e+00
			38.9		3.8814e+00		1.0000e+00
			38.95		3.8326e+00		1.0000e+00
			39.0		3.7838e+00		1.0000e+00
			39.05		3.5209e+00		1.0000e+00
			39.1		3.2581e+00		1.0000e+00
			39.15		2.9953e+00		1.0000e+00
			39.2		2.7325e+00		1.0000e+00
			39.25		2.3877e+00		1.0000e+00
			39.3		2.0428e+00		1.0000e+00
			39.35		1.6980e+00		1.0000e+00
			39.4		1.3531e+00		1.0000e+00
			39.45		1.2748e+00		1.0000e+00
			39.5		1.1965e+00		1.0000e+00
			39.55		1.1181e+00		1.0000e+00
			39.6		1.0398e+00		1.0000e+00
			39.65		1.0213e+00		1.0000e+00
