BEGIN_SCAN_DATA
	FORMAT=CC-Export V1.9                  
	FILE_CREATION_DATE=
	LAST_MODIFIED=11-Jan-2023 10:50:22
	BEGIN_SCAN  1
		TASK_NAME=RayStation Phantom Profiles & PDDs
		PROGRAM=RayStation
		COMMENT=RayStation Script Export
		MEAS_DATE=11-Jan-2023 10:50:22
		LINAC=RayStation
		MODALITY=X
		ISOCENTER=1000.00
		INPLANE_AXIS=Y
		CROSSPLANE_AXIS=X
		DEPTH_AXIS=Z
		INPLANE_AXIS_DIR=GUN_TARGET
		CROSSPLANE_AXIS_DIR=LEFT_RIGHT
		DEPTH_AXIS_DIR=UP_DOWN
		ENERGY=6.3
		NOMINAL_DMAX=20.00
		SSD=1000.0
		SCD=1000.00
		WEDGE_ANGLE=0.00
		FIELD_INPLANE=200.0
		FIELD_CROSSPLANE=200.0
		FIELD_TYPE=IRREGULAR
		GANTRY=0.00
		GANTRY_UPRIGHT_POSITION=0
		GANTRY_ROTATION=CW
		COLL_ANGLE=0.00
		REF_FIELD_DEPTH=50.00
		REF_FIELD_DEFINED=ISOCENTER
		FIELD_INPLANE=200.0
		FIELD_CROSSPLANE=200.0
		SCAN_CURVETYPE=CROSSPLANE_PROFILE
		SCAN_DEPTH=200.0
		SCAN_OFFAXIS_INPLANE=0.00
		SCAN_OFFAXIS_CROSSPLANE=0.00
		SCAN_ANGLE=0.00
		SCAN_DIAGONAL=NOT_DIAGONAL
		SCAN_DIRECTION=NEGATIVE
		MEAS_MEDIUM=WATER
		MEAS_UNIT=cGy
		INCLINATION_ANGLE=0.00
		PRESSURE=1013.20
		TEMPERATURE=20.00
		NORM_TEMPERATURE=20.00
		CORRECTION_FACTOR=1.0000;
		BEGIN_DATA
			-30.05		8.9474e-04		1.0000e+00
			-30.0		1.3421e-03		1.0000e+00
			-29.95		1.7894e-03		1.0000e+00
			-29.9		1.8484e-03		1.0000e+00
			-29.85		1.9075e-03		1.0000e+00
			-29.8		1.9665e-03		1.0000e+00
			-29.75		2.0255e-03		1.0000e+00
			-29.7		2.0730e-03		1.0000e+00
			-29.65		2.1206e-03		1.0000e+00
			-29.6		2.1681e-03		1.0000e+00
			-29.55		2.2156e-03		1.0000e+00
			-29.5		2.2537e-03		1.0000e+00
			-29.45		2.2919e-03		1.0000e+00
			-29.4		2.3300e-03		1.0000e+00
			-29.35		2.3681e-03		1.0000e+00
			-29.3		2.4607e-03		1.0000e+00
			-29.25		2.5532e-03		1.0000e+00
			-29.2		2.6457e-03		1.0000e+00
			-29.15		2.7382e-03		1.0000e+00
			-29.1		2.7591e-03		1.0000e+00
			-29.05		2.7799e-03		1.0000e+00
			-29.0		2.8008e-03		1.0000e+00
			-28.95		2.8216e-03		1.0000e+00
			-28.9		2.9530e-03		1.0000e+00
			-28.85		3.0843e-03		1.0000e+00
			-28.8		3.2157e-03		1.0000e+00
			-28.75		3.3470e-03		1.0000e+00
			-28.7		3.3601e-03		1.0000e+00
			-28.65		3.3731e-03		1.0000e+00
			-28.6		3.3862e-03		1.0000e+00
			-28.55		3.3992e-03		1.0000e+00
			-28.5		3.5473e-03		1.0000e+00
			-28.45		3.6954e-03		1.0000e+00
			-28.4		3.8436e-03		1.0000e+00
			-28.35		3.9916e-03		1.0000e+00
			-28.3		4.0358e-03		1.0000e+00
			-28.25		4.0800e-03		1.0000e+00
			-28.2		4.1241e-03		1.0000e+00
			-28.15		4.1683e-03		1.0000e+00
			-28.1		4.2966e-03		1.0000e+00
			-28.05		4.4249e-03		1.0000e+00
			-28.0		4.5532e-03		1.0000e+00
			-27.95		4.6815e-03		1.0000e+00
			-27.9		4.7855e-03		1.0000e+00
			-27.85		4.8896e-03		1.0000e+00
			-27.8		4.9936e-03		1.0000e+00
			-27.75		5.0977e-03		1.0000e+00
			-27.7		5.1757e-03		1.0000e+00
			-27.65		5.2537e-03		1.0000e+00
			-27.6		5.3317e-03		1.0000e+00
			-27.55		5.4097e-03		1.0000e+00
			-27.5		5.6091e-03		1.0000e+00
			-27.45		5.8085e-03		1.0000e+00
			-27.4		6.0080e-03		1.0000e+00
			-27.35		6.2074e-03		1.0000e+00
			-27.3		6.2457e-03		1.0000e+00
			-27.25		6.2841e-03		1.0000e+00
			-27.2		6.3224e-03		1.0000e+00
			-27.15		6.3608e-03		1.0000e+00
			-27.1		6.6374e-03		1.0000e+00
			-27.05		6.9139e-03		1.0000e+00
			-27.0		7.1905e-03		1.0000e+00
			-26.95		7.4671e-03		1.0000e+00
			-26.9		7.4876e-03		1.0000e+00
			-26.85		7.5082e-03		1.0000e+00
			-26.8		7.5288e-03		1.0000e+00
			-26.75		7.5494e-03		1.0000e+00
			-26.7		7.8545e-03		1.0000e+00
			-26.65		8.1596e-03		1.0000e+00
			-26.6		8.4647e-03		1.0000e+00
			-26.55		8.7698e-03		1.0000e+00
			-26.5		8.8569e-03		1.0000e+00
			-26.45		8.9439e-03		1.0000e+00
			-26.4		9.0310e-03		1.0000e+00
			-26.35		9.1181e-03		1.0000e+00
			-26.3		9.3760e-03		1.0000e+00
			-26.25		9.6338e-03		1.0000e+00
			-26.2		9.8917e-03		1.0000e+00
			-26.15		1.0150e-02		1.0000e+00
			-26.1		1.0353e-02		1.0000e+00
			-26.05		1.0556e-02		1.0000e+00
			-26.0		1.0759e-02		1.0000e+00
			-25.95		1.0963e-02		1.0000e+00
			-25.9		1.1117e-02		1.0000e+00
			-25.85		1.1272e-02		1.0000e+00
			-25.8		1.1426e-02		1.0000e+00
			-25.75		1.1581e-02		1.0000e+00
			-25.7		1.1966e-02		1.0000e+00
			-25.65		1.2350e-02		1.0000e+00
			-25.6		1.2735e-02		1.0000e+00
			-25.55		1.3119e-02		1.0000e+00
			-25.5		1.3196e-02		1.0000e+00
			-25.45		1.3272e-02		1.0000e+00
			-25.4		1.3348e-02		1.0000e+00
			-25.35		1.3424e-02		1.0000e+00
			-25.3		1.3938e-02		1.0000e+00
			-25.25		1.4452e-02		1.0000e+00
			-25.2		1.4966e-02		1.0000e+00
			-25.15		1.5480e-02		1.0000e+00
			-25.1		1.5524e-02		1.0000e+00
			-25.05		1.5568e-02		1.0000e+00
			-25.0		1.5612e-02		1.0000e+00
			-24.95		1.5656e-02		1.0000e+00
			-24.9		1.6207e-02		1.0000e+00
			-24.85		1.6757e-02		1.0000e+00
			-24.8		1.7307e-02		1.0000e+00
			-24.75		1.7858e-02		1.0000e+00
			-24.7		1.8024e-02		1.0000e+00
			-24.65		1.8191e-02		1.0000e+00
			-24.6		1.8358e-02		1.0000e+00
			-24.55		1.8524e-02		1.0000e+00
			-24.5		1.8973e-02		1.0000e+00
			-24.45		1.9422e-02		1.0000e+00
			-24.4		1.9871e-02		1.0000e+00
			-24.35		2.0319e-02		1.0000e+00
			-24.3		2.0689e-02		1.0000e+00
			-24.25		2.1058e-02		1.0000e+00
			-24.2		2.1428e-02		1.0000e+00
			-24.15		2.1797e-02		1.0000e+00
			-24.1		2.2055e-02		1.0000e+00
			-24.05		2.2314e-02		1.0000e+00
			-24.0		2.2572e-02		1.0000e+00
			-23.95		2.2830e-02		1.0000e+00
			-23.9		2.3501e-02		1.0000e+00
			-23.85		2.4172e-02		1.0000e+00
			-23.8		2.4842e-02		1.0000e+00
			-23.75		2.5513e-02		1.0000e+00
			-23.7		2.5633e-02		1.0000e+00
			-23.65		2.5753e-02		1.0000e+00
			-23.6		2.5873e-02		1.0000e+00
			-23.55		2.5993e-02		1.0000e+00
			-23.5		2.6857e-02		1.0000e+00
			-23.45		2.7721e-02		1.0000e+00
			-23.4		2.8585e-02		1.0000e+00
			-23.35		2.9448e-02		1.0000e+00
			-23.3		2.9517e-02		1.0000e+00
			-23.25		2.9586e-02		1.0000e+00
			-23.2		2.9655e-02		1.0000e+00
			-23.15		2.9725e-02		1.0000e+00
			-23.1		3.0620e-02		1.0000e+00
			-23.05		3.1515e-02		1.0000e+00
			-23.0		3.2410e-02		1.0000e+00
			-22.95		3.3305e-02		1.0000e+00
			-22.9		3.3572e-02		1.0000e+00
			-22.85		3.3839e-02		1.0000e+00
			-22.8		3.4106e-02		1.0000e+00
			-22.75		3.4373e-02		1.0000e+00
			-22.7		3.5082e-02		1.0000e+00
			-22.65		3.5791e-02		1.0000e+00
			-22.6		3.6499e-02		1.0000e+00
			-22.55		3.7208e-02		1.0000e+00
			-22.5		3.7793e-02		1.0000e+00
			-22.45		3.8378e-02		1.0000e+00
			-22.4		3.8963e-02		1.0000e+00
			-22.35		3.9548e-02		1.0000e+00
			-22.3		3.9948e-02		1.0000e+00
			-22.25		4.0348e-02		1.0000e+00
			-22.2		4.0748e-02		1.0000e+00
			-22.15		4.1149e-02		1.0000e+00
			-22.1		4.2173e-02		1.0000e+00
			-22.05		4.3197e-02		1.0000e+00
			-22.0		4.4222e-02		1.0000e+00
			-21.95		4.5246e-02		1.0000e+00
			-21.9		4.5432e-02		1.0000e+00
			-21.85		4.5618e-02		1.0000e+00
			-21.8		4.5804e-02		1.0000e+00
			-21.75		4.5990e-02		1.0000e+00
			-21.7		4.7263e-02		1.0000e+00
			-21.65		4.8537e-02		1.0000e+00
			-21.6		4.9811e-02		1.0000e+00
			-21.55		5.1084e-02		1.0000e+00
			-21.5		5.1203e-02		1.0000e+00
			-21.45		5.1322e-02		1.0000e+00
			-21.4		5.1440e-02		1.0000e+00
			-21.35		5.1559e-02		1.0000e+00
			-21.3		5.2841e-02		1.0000e+00
			-21.25		5.4124e-02		1.0000e+00
			-21.2		5.5406e-02		1.0000e+00
			-21.15		5.6688e-02		1.0000e+00
			-21.1		5.7088e-02		1.0000e+00
			-21.05		5.7489e-02		1.0000e+00
			-21.0		5.7890e-02		1.0000e+00
			-20.95		5.8290e-02		1.0000e+00
			-20.9		5.3964e-02		1.0000e+00
			-20.85		4.9638e-02		1.0000e+00
			-20.8		4.5312e-02		1.0000e+00
			-20.75		4.0985e-02		1.0000e+00
			-20.7		3.3143e-02		1.0000e+00
			-20.65		2.5301e-02		1.0000e+00
			-20.6		1.7459e-02		1.0000e+00
			-20.55		9.6200e-03		1.0000e+00
			-20.5		3.1958e-02		1.0000e+00
			-20.45		5.4296e-02		1.0000e+00
			-20.4		7.6634e-02		1.0000e+00
			-20.35		9.8972e-02		1.0000e+00
			-20.3		1.2133e-01		1.0000e+00
			-20.25		1.4368e-01		1.0000e+00
			-20.2		1.6604e-01		1.0000e+00
			-20.15		1.8839e-01		1.0000e+00
			-20.1		2.1076e-01		1.0000e+00
			-20.05		2.3313e-01		1.0000e+00
			-20.0		2.5550e-01		1.0000e+00
			-19.95		2.7787e-01		1.0000e+00
			-19.9		3.0025e-01		1.0000e+00
			-19.85		3.2264e-01		1.0000e+00
			-19.8		3.4502e-01		1.0000e+00
			-19.75		3.6741e-01		1.0000e+00
			-19.7		3.6960e-01		1.0000e+00
			-19.65		3.7180e-01		1.0000e+00
			-19.6		3.7399e-01		1.0000e+00
			-19.55		3.7619e-01		1.0000e+00
			-19.5		3.7839e-01		1.0000e+00
			-19.45		3.8058e-01		1.0000e+00
			-19.4		3.8278e-01		1.0000e+00
			-19.35		3.8498e-01		1.0000e+00
			-19.3		3.8717e-01		1.0000e+00
			-19.25		3.8937e-01		1.0000e+00
			-19.2		3.9157e-01		1.0000e+00
			-19.15		3.9377e-01		1.0000e+00
			-19.1		3.9597e-01		1.0000e+00
			-19.05		3.9816e-01		1.0000e+00
			-19.0		4.0036e-01		1.0000e+00
			-18.95		4.0256e-01		1.0000e+00
			-18.9		4.0601e-01		1.0000e+00
			-18.85		4.0946e-01		1.0000e+00
			-18.8		4.1290e-01		1.0000e+00
			-18.75		4.1635e-01		1.0000e+00
			-18.7		4.1980e-01		1.0000e+00
			-18.65		4.2325e-01		1.0000e+00
			-18.6		4.2669e-01		1.0000e+00
			-18.55		4.3014e-01		1.0000e+00
			-18.5		4.3359e-01		1.0000e+00
			-18.45		4.3704e-01		1.0000e+00
			-18.4		4.4049e-01		1.0000e+00
			-18.35		4.4395e-01		1.0000e+00
			-18.3		4.4740e-01		1.0000e+00
			-18.25		4.5085e-01		1.0000e+00
			-18.2		4.5430e-01		1.0000e+00
			-18.15		4.5775e-01		1.0000e+00
			-18.1		4.6167e-01		1.0000e+00
			-18.05		4.6558e-01		1.0000e+00
			-18.0		4.6949e-01		1.0000e+00
			-17.95		4.7340e-01		1.0000e+00
			-17.9		4.7732e-01		1.0000e+00
			-17.85		4.8123e-01		1.0000e+00
			-17.8		4.8515e-01		1.0000e+00
			-17.75		4.8906e-01		1.0000e+00
			-17.7		4.9298e-01		1.0000e+00
			-17.65		4.9690e-01		1.0000e+00
			-17.6		5.0081e-01		1.0000e+00
			-17.55		5.0473e-01		1.0000e+00
			-17.5		5.0865e-01		1.0000e+00
			-17.45		5.1257e-01		1.0000e+00
			-17.4		5.1648e-01		1.0000e+00
			-17.35		5.2040e-01		1.0000e+00
			-17.3		5.2604e-01		1.0000e+00
			-17.25		5.3168e-01		1.0000e+00
			-17.2		5.3731e-01		1.0000e+00
			-17.15		5.4295e-01		1.0000e+00
			-17.1		5.4859e-01		1.0000e+00
			-17.05		5.5423e-01		1.0000e+00
			-17.0		5.5987e-01		1.0000e+00
			-16.95		5.6551e-01		1.0000e+00
			-16.9		5.7115e-01		1.0000e+00
			-16.85		5.7679e-01		1.0000e+00
			-16.8		5.8244e-01		1.0000e+00
			-16.75		5.8808e-01		1.0000e+00
			-16.7		5.9372e-01		1.0000e+00
			-16.65		5.9937e-01		1.0000e+00
			-16.6		6.0502e-01		1.0000e+00
			-16.55		6.1066e-01		1.0000e+00
			-16.5		6.1743e-01		1.0000e+00
			-16.45		6.2419e-01		1.0000e+00
			-16.4		6.3096e-01		1.0000e+00
			-16.35		6.3772e-01		1.0000e+00
			-16.3		6.4449e-01		1.0000e+00
			-16.25		6.5126e-01		1.0000e+00
			-16.2		6.5803e-01		1.0000e+00
			-16.15		6.6480e-01		1.0000e+00
			-16.1		6.7157e-01		1.0000e+00
			-16.05		6.7834e-01		1.0000e+00
			-16.0		6.8511e-01		1.0000e+00
			-15.95		6.9188e-01		1.0000e+00
			-15.9		6.9866e-01		1.0000e+00
			-15.85		7.0543e-01		1.0000e+00
			-15.8		7.1221e-01		1.0000e+00
			-15.75		7.1899e-01		1.0000e+00
			-15.7		7.4172e-01		1.0000e+00
			-15.65		7.6446e-01		1.0000e+00
			-15.6		7.8720e-01		1.0000e+00
			-15.55		8.0994e-01		1.0000e+00
			-15.5		8.3257e-01		1.0000e+00
			-15.45		8.5520e-01		1.0000e+00
			-15.4		8.7783e-01		1.0000e+00
			-15.35		9.0046e-01		1.0000e+00
			-15.3		1.0092e+00		1.0000e+00
			-15.25		1.1179e+00		1.0000e+00
			-15.2		1.2266e+00		1.0000e+00
			-15.15		1.3353e+00		1.0000e+00
			-15.1		1.4799e+00		1.0000e+00
			-15.05		1.6246e+00		1.0000e+00
			-15.0		1.7693e+00		1.0000e+00
			-14.95		1.9139e+00		1.0000e+00
			-14.9		2.0059e+00		1.0000e+00
			-14.85		2.0978e+00		1.0000e+00
			-14.8		2.1897e+00		1.0000e+00
			-14.75		2.2817e+00		1.0000e+00
			-14.7		2.3204e+00		1.0000e+00
			-14.65		2.3591e+00		1.0000e+00
			-14.6		2.3978e+00		1.0000e+00
			-14.55		2.4364e+00		1.0000e+00
			-14.5		2.4560e+00		1.0000e+00
			-14.45		2.4755e+00		1.0000e+00
			-14.4		2.4951e+00		1.0000e+00
			-14.35		2.5146e+00		1.0000e+00
			-14.3		2.5257e+00		1.0000e+00
			-14.25		2.5367e+00		1.0000e+00
			-14.2		2.5477e+00		1.0000e+00
			-14.15		2.5588e+00		1.0000e+00
			-14.1		2.5653e+00		1.0000e+00
			-14.05		2.5717e+00		1.0000e+00
			-14.0		2.5782e+00		1.0000e+00
			-13.95		2.5847e+00		1.0000e+00
			-13.9		2.5912e+00		1.0000e+00
			-13.85		2.5977e+00		1.0000e+00
			-13.8		2.6042e+00		1.0000e+00
			-13.75		2.6106e+00		1.0000e+00
			-13.7		2.6171e+00		1.0000e+00
			-13.65		2.6236e+00		1.0000e+00
			-13.6		2.6301e+00		1.0000e+00
			-13.55		2.6366e+00		1.0000e+00
			-13.5		2.6431e+00		1.0000e+00
			-13.45		2.6495e+00		1.0000e+00
			-13.4		2.6560e+00		1.0000e+00
			-13.35		2.6625e+00		1.0000e+00
			-13.3		2.6683e+00		1.0000e+00
			-13.25		2.6741e+00		1.0000e+00
			-13.2		2.6800e+00		1.0000e+00
			-13.15		2.6858e+00		1.0000e+00
			-13.1		2.6916e+00		1.0000e+00
			-13.05		2.6974e+00		1.0000e+00
			-13.0		2.7032e+00		1.0000e+00
			-12.95		2.7090e+00		1.0000e+00
			-12.9		2.7148e+00		1.0000e+00
			-12.85		2.7206e+00		1.0000e+00
			-12.8		2.7265e+00		1.0000e+00
			-12.75		2.7323e+00		1.0000e+00
			-12.7		2.7381e+00		1.0000e+00
			-12.65		2.7439e+00		1.0000e+00
			-12.6		2.7497e+00		1.0000e+00
			-12.55		2.7555e+00		1.0000e+00
			-12.5		2.7615e+00		1.0000e+00
			-12.45		2.7674e+00		1.0000e+00
			-12.4		2.7734e+00		1.0000e+00
			-12.35		2.7793e+00		1.0000e+00
			-12.3		2.7853e+00		1.0000e+00
			-12.25		2.7912e+00		1.0000e+00
			-12.2		2.7972e+00		1.0000e+00
			-12.15		2.8031e+00		1.0000e+00
			-12.1		2.8091e+00		1.0000e+00
			-12.05		2.8150e+00		1.0000e+00
			-12.0		2.8210e+00		1.0000e+00
			-11.95		2.8269e+00		1.0000e+00
			-11.9		2.8329e+00		1.0000e+00
			-11.85		2.8388e+00		1.0000e+00
			-11.8		2.8448e+00		1.0000e+00
			-11.75		2.8507e+00		1.0000e+00
			-11.7		2.8551e+00		1.0000e+00
			-11.65		2.8596e+00		1.0000e+00
			-11.6		2.8640e+00		1.0000e+00
			-11.55		2.8684e+00		1.0000e+00
			-11.5		2.8729e+00		1.0000e+00
			-11.45		2.8773e+00		1.0000e+00
			-11.4		2.8817e+00		1.0000e+00
			-11.35		2.8862e+00		1.0000e+00
			-11.3		2.8906e+00		1.0000e+00
			-11.25		2.8950e+00		1.0000e+00
			-11.2		2.8995e+00		1.0000e+00
			-11.15		2.9039e+00		1.0000e+00
			-11.1		2.9083e+00		1.0000e+00
			-11.05		2.9128e+00		1.0000e+00
			-11.0		2.9172e+00		1.0000e+00
			-10.95		2.9216e+00		1.0000e+00
			-10.9		2.9256e+00		1.0000e+00
			-10.85		2.9296e+00		1.0000e+00
			-10.8		2.9336e+00		1.0000e+00
			-10.75		2.9376e+00		1.0000e+00
			-10.7		2.9416e+00		1.0000e+00
			-10.65		2.9455e+00		1.0000e+00
			-10.6		2.9495e+00		1.0000e+00
			-10.55		2.9535e+00		1.0000e+00
			-10.5		2.9575e+00		1.0000e+00
			-10.45		2.9615e+00		1.0000e+00
			-10.4		2.9655e+00		1.0000e+00
			-10.35		2.9694e+00		1.0000e+00
			-10.3		2.9734e+00		1.0000e+00
			-10.25		2.9774e+00		1.0000e+00
			-10.2		2.9814e+00		1.0000e+00
			-10.15		2.9854e+00		1.0000e+00
			-10.1		2.9891e+00		1.0000e+00
			-10.05		2.9929e+00		1.0000e+00
			-10.0		2.9966e+00		1.0000e+00
			-9.95		3.0004e+00		1.0000e+00
			-9.9		3.0042e+00		1.0000e+00
			-9.85		3.0079e+00		1.0000e+00
			-9.8		3.0117e+00		1.0000e+00
			-9.75		3.0155e+00		1.0000e+00
			-9.7		3.0192e+00		1.0000e+00
			-9.65		3.0230e+00		1.0000e+00
			-9.6		3.0267e+00		1.0000e+00
			-9.55		3.0305e+00		1.0000e+00
			-9.5		3.0342e+00		1.0000e+00
			-9.45		3.0380e+00		1.0000e+00
			-9.4		3.0418e+00		1.0000e+00
			-9.35		3.0455e+00		1.0000e+00
			-9.3		3.0489e+00		1.0000e+00
			-9.25		3.0523e+00		1.0000e+00
			-9.2		3.0557e+00		1.0000e+00
			-9.15		3.0591e+00		1.0000e+00
			-9.1		3.0626e+00		1.0000e+00
			-9.05		3.0660e+00		1.0000e+00
			-9.0		3.0694e+00		1.0000e+00
			-8.95		3.0728e+00		1.0000e+00
			-8.9		3.0762e+00		1.0000e+00
			-8.85		3.0796e+00		1.0000e+00
			-8.8		3.0830e+00		1.0000e+00
			-8.75		3.0864e+00		1.0000e+00
			-8.7		3.0898e+00		1.0000e+00
			-8.65		3.0932e+00		1.0000e+00
			-8.6		3.0966e+00		1.0000e+00
			-8.55		3.1000e+00		1.0000e+00
			-8.5		3.1028e+00		1.0000e+00
			-8.45		3.1056e+00		1.0000e+00
			-8.4		3.1084e+00		1.0000e+00
			-8.35		3.1112e+00		1.0000e+00
			-8.3		3.1140e+00		1.0000e+00
			-8.25		3.1168e+00		1.0000e+00
			-8.2		3.1196e+00		1.0000e+00
			-8.15		3.1224e+00		1.0000e+00
			-8.1		3.1252e+00		1.0000e+00
			-8.05		3.1280e+00		1.0000e+00
			-8.0		3.1308e+00		1.0000e+00
			-7.95		3.1336e+00		1.0000e+00
			-7.9		3.1363e+00		1.0000e+00
			-7.85		3.1391e+00		1.0000e+00
			-7.8		3.1419e+00		1.0000e+00
			-7.75		3.1447e+00		1.0000e+00
			-7.7		3.1472e+00		1.0000e+00
			-7.65		3.1497e+00		1.0000e+00
			-7.6		3.1522e+00		1.0000e+00
			-7.55		3.1547e+00		1.0000e+00
			-7.5		3.1572e+00		1.0000e+00
			-7.45		3.1596e+00		1.0000e+00
			-7.4		3.1621e+00		1.0000e+00
			-7.35		3.1646e+00		1.0000e+00
			-7.3		3.1671e+00		1.0000e+00
			-7.25		3.1696e+00		1.0000e+00
			-7.2		3.1721e+00		1.0000e+00
			-7.15		3.1745e+00		1.0000e+00
			-7.1		3.1770e+00		1.0000e+00
			-7.05		3.1795e+00		1.0000e+00
			-7.0		3.1820e+00		1.0000e+00
			-6.95		3.1845e+00		1.0000e+00
			-6.9		3.1869e+00		1.0000e+00
			-6.85		3.1893e+00		1.0000e+00
			-6.8		3.1917e+00		1.0000e+00
			-6.75		3.1941e+00		1.0000e+00
			-6.7		3.1965e+00		1.0000e+00
			-6.65		3.1989e+00		1.0000e+00
			-6.6		3.2013e+00		1.0000e+00
			-6.55		3.2037e+00		1.0000e+00
			-6.5		3.2061e+00		1.0000e+00
			-6.45		3.2085e+00		1.0000e+00
			-6.4		3.2109e+00		1.0000e+00
			-6.35		3.2133e+00		1.0000e+00
			-6.3		3.2157e+00		1.0000e+00
			-6.25		3.2181e+00		1.0000e+00
			-6.2		3.2205e+00		1.0000e+00
			-6.15		3.2229e+00		1.0000e+00
			-6.1		3.2252e+00		1.0000e+00
			-6.05		3.2275e+00		1.0000e+00
			-6.0		3.2298e+00		1.0000e+00
			-5.95		3.2320e+00		1.0000e+00
			-5.9		3.2343e+00		1.0000e+00
			-5.85		3.2366e+00		1.0000e+00
			-5.8		3.2388e+00		1.0000e+00
			-5.75		3.2411e+00		1.0000e+00
			-5.7		3.2434e+00		1.0000e+00
			-5.65		3.2457e+00		1.0000e+00
			-5.6		3.2479e+00		1.0000e+00
			-5.55		3.2502e+00		1.0000e+00
			-5.5		3.2525e+00		1.0000e+00
			-5.45		3.2547e+00		1.0000e+00
			-5.4		3.2570e+00		1.0000e+00
			-5.35		3.2593e+00		1.0000e+00
			-5.3		3.2610e+00		1.0000e+00
			-5.25		3.2627e+00		1.0000e+00
			-5.2		3.2644e+00		1.0000e+00
			-5.15		3.2661e+00		1.0000e+00
			-5.1		3.2678e+00		1.0000e+00
			-5.05		3.2695e+00		1.0000e+00
			-5.0		3.2712e+00		1.0000e+00
			-4.95		3.2729e+00		1.0000e+00
			-4.9		3.2747e+00		1.0000e+00
			-4.85		3.2764e+00		1.0000e+00
			-4.8		3.2781e+00		1.0000e+00
			-4.75		3.2798e+00		1.0000e+00
			-4.7		3.2815e+00		1.0000e+00
			-4.65		3.2832e+00		1.0000e+00
			-4.6		3.2849e+00		1.0000e+00
			-4.55		3.2866e+00		1.0000e+00
			-4.5		3.2878e+00		1.0000e+00
			-4.45		3.2890e+00		1.0000e+00
			-4.4		3.2902e+00		1.0000e+00
			-4.35		3.2914e+00		1.0000e+00
			-4.3		3.2926e+00		1.0000e+00
			-4.25		3.2938e+00		1.0000e+00
			-4.2		3.2950e+00		1.0000e+00
			-4.15		3.2962e+00		1.0000e+00
			-4.1		3.2974e+00		1.0000e+00
			-4.05		3.2986e+00		1.0000e+00
			-4.0		3.2998e+00		1.0000e+00
			-3.95		3.3009e+00		1.0000e+00
			-3.9		3.3021e+00		1.0000e+00
			-3.85		3.3033e+00		1.0000e+00
			-3.8		3.3045e+00		1.0000e+00
			-3.75		3.3057e+00		1.0000e+00
			-3.7		3.3067e+00		1.0000e+00
			-3.65		3.3077e+00		1.0000e+00
			-3.6		3.3087e+00		1.0000e+00
			-3.55		3.3096e+00		1.0000e+00
			-3.5		3.3106e+00		1.0000e+00
			-3.45		3.3116e+00		1.0000e+00
			-3.4		3.3126e+00		1.0000e+00
			-3.35		3.3136e+00		1.0000e+00
			-3.3		3.3145e+00		1.0000e+00
			-3.25		3.3155e+00		1.0000e+00
			-3.2		3.3165e+00		1.0000e+00
			-3.15		3.3175e+00		1.0000e+00
			-3.1		3.3184e+00		1.0000e+00
			-3.05		3.3194e+00		1.0000e+00
			-3.0		3.3204e+00		1.0000e+00
			-2.95		3.3214e+00		1.0000e+00
			-2.9		3.3219e+00		1.0000e+00
			-2.85		3.3224e+00		1.0000e+00
			-2.8		3.3229e+00		1.0000e+00
			-2.75		3.3234e+00		1.0000e+00
			-2.7		3.3239e+00		1.0000e+00
			-2.65		3.3244e+00		1.0000e+00
			-2.6		3.3249e+00		1.0000e+00
			-2.55		3.3254e+00		1.0000e+00
			-2.5		3.3260e+00		1.0000e+00
			-2.45		3.3265e+00		1.0000e+00
			-2.4		3.3270e+00		1.0000e+00
			-2.35		3.3275e+00		1.0000e+00
			-2.3		3.3280e+00		1.0000e+00
			-2.25		3.3285e+00		1.0000e+00
			-2.2		3.3290e+00		1.0000e+00
			-2.15		3.3295e+00		1.0000e+00
			-2.1		3.3298e+00		1.0000e+00
			-2.05		3.3301e+00		1.0000e+00
			-2.0		3.3305e+00		1.0000e+00
			-1.95		3.3308e+00		1.0000e+00
			-1.9		3.3311e+00		1.0000e+00
			-1.85		3.3314e+00		1.0000e+00
			-1.8		3.3318e+00		1.0000e+00
			-1.75		3.3321e+00		1.0000e+00
			-1.7		3.3324e+00		1.0000e+00
			-1.65		3.3327e+00		1.0000e+00
			-1.6		3.3330e+00		1.0000e+00
			-1.55		3.3334e+00		1.0000e+00
			-1.5		3.3337e+00		1.0000e+00
			-1.45		3.3340e+00		1.0000e+00
			-1.4		3.3343e+00		1.0000e+00
			-1.35		3.3346e+00		1.0000e+00
			-1.3		3.3347e+00		1.0000e+00
			-1.25		3.3348e+00		1.0000e+00
			-1.2		3.3349e+00		1.0000e+00
			-1.15		3.3350e+00		1.0000e+00
			-1.1		3.3351e+00		1.0000e+00
			-1.05		3.3352e+00		1.0000e+00
			-1.0		3.3353e+00		1.0000e+00
			-0.95		3.3354e+00		1.0000e+00
			-0.9		3.3355e+00		1.0000e+00
			-0.85		3.3356e+00		1.0000e+00
			-0.8		3.3357e+00		1.0000e+00
			-0.75		3.3358e+00		1.0000e+00
			-0.7		3.3359e+00		1.0000e+00
			-0.65		3.3360e+00		1.0000e+00
			-0.6		3.3361e+00		1.0000e+00
			-0.55		3.3361e+00		1.0000e+00
			-0.5		3.3362e+00		1.0000e+00
			-0.45		3.3362e+00		1.0000e+00
			-0.4		3.3362e+00		1.0000e+00
			-0.35		3.3362e+00		1.0000e+00
			-0.3		3.3362e+00		1.0000e+00
			-0.25		3.3362e+00		1.0000e+00
			-0.2		3.3362e+00		1.0000e+00
			-0.15		3.3362e+00		1.0000e+00
			-0.1		3.3362e+00		1.0000e+00
			-0.05		3.3362e+00		1.0000e+00
			0.0		3.3362e+00		1.0000e+00
			0.05		3.3362e+00		1.0000e+00
			0.1		3.3363e+00		1.0000e+00
			0.15		3.3363e+00		1.0000e+00
			0.2		3.3363e+00		1.0000e+00
			0.25		3.3363e+00		1.0000e+00
			0.3		3.3363e+00		1.0000e+00
			0.35		3.3363e+00		1.0000e+00
			0.4		3.3363e+00		1.0000e+00
			0.45		3.3363e+00		1.0000e+00
			0.5		3.3363e+00		1.0000e+00
			0.55		3.3364e+00		1.0000e+00
			0.6		3.3364e+00		1.0000e+00
			0.65		3.3364e+00		1.0000e+00
			0.7		3.3364e+00		1.0000e+00
			0.75		3.3364e+00		1.0000e+00
			0.8		3.3364e+00		1.0000e+00
			0.85		3.3364e+00		1.0000e+00
			0.9		3.3364e+00		1.0000e+00
			0.95		3.3365e+00		1.0000e+00
			1.0		3.3365e+00		1.0000e+00
			1.05		3.3365e+00		1.0000e+00
			1.1		3.3363e+00		1.0000e+00
			1.15		3.3361e+00		1.0000e+00
			1.2		3.3360e+00		1.0000e+00
			1.25		3.3358e+00		1.0000e+00
			1.3		3.3357e+00		1.0000e+00
			1.35		3.3355e+00		1.0000e+00
			1.4		3.3353e+00		1.0000e+00
			1.45		3.3352e+00		1.0000e+00
			1.5		3.3350e+00		1.0000e+00
			1.55		3.3348e+00		1.0000e+00
			1.6		3.3347e+00		1.0000e+00
			1.65		3.3345e+00		1.0000e+00
			1.7		3.3343e+00		1.0000e+00
			1.75		3.3341e+00		1.0000e+00
			1.8		3.3340e+00		1.0000e+00
			1.85		3.3338e+00		1.0000e+00
			1.9		3.3338e+00		1.0000e+00
			1.95		3.3337e+00		1.0000e+00
			2.0		3.3337e+00		1.0000e+00
			2.05		3.3337e+00		1.0000e+00
			2.1		3.3336e+00		1.0000e+00
			2.15		3.3336e+00		1.0000e+00
			2.2		3.3335e+00		1.0000e+00
			2.25		3.3335e+00		1.0000e+00
			2.3		3.3335e+00		1.0000e+00
			2.35		3.3334e+00		1.0000e+00
			2.4		3.3334e+00		1.0000e+00
			2.45		3.3333e+00		1.0000e+00
			2.5		3.3333e+00		1.0000e+00
			2.55		3.3332e+00		1.0000e+00
			2.6		3.3332e+00		1.0000e+00
			2.65		3.3331e+00		1.0000e+00
			2.7		3.3325e+00		1.0000e+00
			2.75		3.3319e+00		1.0000e+00
			2.8		3.3312e+00		1.0000e+00
			2.85		3.3306e+00		1.0000e+00
			2.9		3.3300e+00		1.0000e+00
			2.95		3.3293e+00		1.0000e+00
			3.0		3.3287e+00		1.0000e+00
			3.05		3.3281e+00		1.0000e+00
			3.1		3.3274e+00		1.0000e+00
			3.15		3.3268e+00		1.0000e+00
			3.2		3.3261e+00		1.0000e+00
			3.25		3.3255e+00		1.0000e+00
			3.3		3.3249e+00		1.0000e+00
			3.35		3.3242e+00		1.0000e+00
			3.4		3.3236e+00		1.0000e+00
			3.45		3.3229e+00		1.0000e+00
			3.5		3.3219e+00		1.0000e+00
			3.55		3.3208e+00		1.0000e+00
			3.6		3.3198e+00		1.0000e+00
			3.65		3.3187e+00		1.0000e+00
			3.7		3.3176e+00		1.0000e+00
			3.75		3.3166e+00		1.0000e+00
			3.8		3.3155e+00		1.0000e+00
			3.85		3.3144e+00		1.0000e+00
			3.9		3.3134e+00		1.0000e+00
			3.95		3.3123e+00		1.0000e+00
			4.0		3.3112e+00		1.0000e+00
			4.05		3.3102e+00		1.0000e+00
			4.1		3.3091e+00		1.0000e+00
			4.15		3.3080e+00		1.0000e+00
			4.2		3.3070e+00		1.0000e+00
			4.25		3.3059e+00		1.0000e+00
			4.3		3.3050e+00		1.0000e+00
			4.35		3.3041e+00		1.0000e+00
			4.4		3.3032e+00		1.0000e+00
			4.45		3.3023e+00		1.0000e+00
			4.5		3.3013e+00		1.0000e+00
			4.55		3.3004e+00		1.0000e+00
			4.6		3.2995e+00		1.0000e+00
			4.65		3.2986e+00		1.0000e+00
			4.7		3.2977e+00		1.0000e+00
			4.75		3.2968e+00		1.0000e+00
			4.8		3.2959e+00		1.0000e+00
			4.85		3.2949e+00		1.0000e+00
			4.9		3.2940e+00		1.0000e+00
			4.95		3.2931e+00		1.0000e+00
			5.0		3.2922e+00		1.0000e+00
			5.05		3.2913e+00		1.0000e+00
			5.1		3.2961e+00		1.0000e+00
			5.15		3.3010e+00		1.0000e+00
			5.2		3.3058e+00		1.0000e+00
			5.25		3.3106e+00		1.0000e+00
			5.3		3.3155e+00		1.0000e+00
			5.35		3.3203e+00		1.0000e+00
			5.4		3.3251e+00		1.0000e+00
			5.45		3.3300e+00		1.0000e+00
			5.5		3.3649e+00		1.0000e+00
			5.55		3.3999e+00		1.0000e+00
			5.6		3.4349e+00		1.0000e+00
			5.65		3.4698e+00		1.0000e+00
			5.7		3.5437e+00		1.0000e+00
			5.75		3.6176e+00		1.0000e+00
			5.8		3.6914e+00		1.0000e+00
			5.85		3.7653e+00		1.0000e+00
			5.9		3.7577e+00		1.0000e+00
			5.95		3.7501e+00		1.0000e+00
			6.0		3.7425e+00		1.0000e+00
			6.05		3.7349e+00		1.0000e+00
			6.1		3.6547e+00		1.0000e+00
			6.15		3.5744e+00		1.0000e+00
			6.2		3.4942e+00		1.0000e+00
			6.25		3.4140e+00		1.0000e+00
			6.3		3.3915e+00		1.0000e+00
			6.35		3.3691e+00		1.0000e+00
			6.4		3.3466e+00		1.0000e+00
			6.45		3.3242e+00		1.0000e+00
			6.5		3.3017e+00		1.0000e+00
			6.55		3.2793e+00		1.0000e+00
			6.6		3.2568e+00		1.0000e+00
			6.65		3.2343e+00		1.0000e+00
			6.7		3.2304e+00		1.0000e+00
			6.75		3.2265e+00		1.0000e+00
			6.8		3.2226e+00		1.0000e+00
			6.85		3.2186e+00		1.0000e+00
			6.9		3.2147e+00		1.0000e+00
			6.95		3.2108e+00		1.0000e+00
			7.0		3.2068e+00		1.0000e+00
			7.05		3.2029e+00		1.0000e+00
			7.1		3.1990e+00		1.0000e+00
			7.15		3.1950e+00		1.0000e+00
			7.2		3.1911e+00		1.0000e+00
			7.25		3.1872e+00		1.0000e+00
			7.3		3.1832e+00		1.0000e+00
			7.35		3.1793e+00		1.0000e+00
			7.4		3.1753e+00		1.0000e+00
			7.45		3.1714e+00		1.0000e+00
			7.5		3.1686e+00		1.0000e+00
			7.55		3.1658e+00		1.0000e+00
			7.6		3.1630e+00		1.0000e+00
			7.65		3.1602e+00		1.0000e+00
			7.7		3.1574e+00		1.0000e+00
			7.75		3.1546e+00		1.0000e+00
			7.8		3.1518e+00		1.0000e+00
			7.85		3.1490e+00		1.0000e+00
			7.9		3.1462e+00		1.0000e+00
			7.95		3.1434e+00		1.0000e+00
			8.0		3.1406e+00		1.0000e+00
			8.05		3.1378e+00		1.0000e+00
			8.1		3.1349e+00		1.0000e+00
			8.15		3.1321e+00		1.0000e+00
			8.2		3.1293e+00		1.0000e+00
			8.25		3.1265e+00		1.0000e+00
			8.3		3.1228e+00		1.0000e+00
			8.35		3.1192e+00		1.0000e+00
			8.4		3.1155e+00		1.0000e+00
			8.45		3.1118e+00		1.0000e+00
			8.5		3.1081e+00		1.0000e+00
			8.55		3.1044e+00		1.0000e+00
			8.6		3.1008e+00		1.0000e+00
			8.65		3.0971e+00		1.0000e+00
			8.7		3.0934e+00		1.0000e+00
			8.75		3.0897e+00		1.0000e+00
			8.8		3.0860e+00		1.0000e+00
			8.85		3.0824e+00		1.0000e+00
			8.9		3.0787e+00		1.0000e+00
			8.95		3.0750e+00		1.0000e+00
			9.0		3.0713e+00		1.0000e+00
			9.05		3.0676e+00		1.0000e+00
			9.1		3.0640e+00		1.0000e+00
			9.15		3.0604e+00		1.0000e+00
			9.2		3.0568e+00		1.0000e+00
			9.25		3.0532e+00		1.0000e+00
			9.3		3.0496e+00		1.0000e+00
			9.35		3.0460e+00		1.0000e+00
			9.4		3.0424e+00		1.0000e+00
			9.45		3.0388e+00		1.0000e+00
			9.5		3.0352e+00		1.0000e+00
			9.55		3.0316e+00		1.0000e+00
			9.6		3.0280e+00		1.0000e+00
			9.65		3.0244e+00		1.0000e+00
			9.7		3.0208e+00		1.0000e+00
			9.75		3.0172e+00		1.0000e+00
			9.8		3.0136e+00		1.0000e+00
			9.85		3.0100e+00		1.0000e+00
			9.9		3.0060e+00		1.0000e+00
			9.95		3.0021e+00		1.0000e+00
			10.0		2.9982e+00		1.0000e+00
			10.05		2.9943e+00		1.0000e+00
			10.1		2.9904e+00		1.0000e+00
			10.15		2.9865e+00		1.0000e+00
			10.2		2.9826e+00		1.0000e+00
			10.25		2.9787e+00		1.0000e+00
			10.3		2.9748e+00		1.0000e+00
			10.35		2.9708e+00		1.0000e+00
			10.4		2.9669e+00		1.0000e+00
			10.45		2.9630e+00		1.0000e+00
			10.5		2.9591e+00		1.0000e+00
			10.55		2.9552e+00		1.0000e+00
			10.6		2.9513e+00		1.0000e+00
			10.65		2.9474e+00		1.0000e+00
			10.7		2.9429e+00		1.0000e+00
			10.75		2.9384e+00		1.0000e+00
			10.8		2.9340e+00		1.0000e+00
			10.85		2.9295e+00		1.0000e+00
			10.9		2.9250e+00		1.0000e+00
			10.95		2.9205e+00		1.0000e+00
			11.0		2.9161e+00		1.0000e+00
			11.05		2.9116e+00		1.0000e+00
			11.1		2.9071e+00		1.0000e+00
			11.15		2.9027e+00		1.0000e+00
			11.2		2.8982e+00		1.0000e+00
			11.25		2.8937e+00		1.0000e+00
			11.3		2.8892e+00		1.0000e+00
			11.35		2.8848e+00		1.0000e+00
			11.4		2.8803e+00		1.0000e+00
			11.45		2.8758e+00		1.0000e+00
			11.5		2.8703e+00		1.0000e+00
			11.55		2.8648e+00		1.0000e+00
			11.6		2.8593e+00		1.0000e+00
			11.65		2.8538e+00		1.0000e+00
			11.7		2.8483e+00		1.0000e+00
			11.75		2.8428e+00		1.0000e+00
			11.8		2.8374e+00		1.0000e+00
			11.85		2.8319e+00		1.0000e+00
			11.9		2.8264e+00		1.0000e+00
			11.95		2.8209e+00		1.0000e+00
			12.0		2.8154e+00		1.0000e+00
			12.05		2.8099e+00		1.0000e+00
			12.1		2.8044e+00		1.0000e+00
			12.15		2.7989e+00		1.0000e+00
			12.2		2.7934e+00		1.0000e+00
			12.25		2.7879e+00		1.0000e+00
			12.3		2.7817e+00		1.0000e+00
			12.35		2.7754e+00		1.0000e+00
			12.4		2.7692e+00		1.0000e+00
			12.45		2.7630e+00		1.0000e+00
			12.5		2.7568e+00		1.0000e+00
			12.55		2.7505e+00		1.0000e+00
			12.6		2.7443e+00		1.0000e+00
			12.65		2.7381e+00		1.0000e+00
			12.7		2.7319e+00		1.0000e+00
			12.75		2.7256e+00		1.0000e+00
			12.8		2.7194e+00		1.0000e+00
			12.85		2.7132e+00		1.0000e+00
			12.9		2.7070e+00		1.0000e+00
			12.95		2.7007e+00		1.0000e+00
			13.0		2.6945e+00		1.0000e+00
			13.05		2.6883e+00		1.0000e+00
			13.1		2.6824e+00		1.0000e+00
			13.15		2.6764e+00		1.0000e+00
			13.2		2.6705e+00		1.0000e+00
			13.25		2.6645e+00		1.0000e+00
			13.3		2.6586e+00		1.0000e+00
			13.35		2.6526e+00		1.0000e+00
			13.4		2.6467e+00		1.0000e+00
			13.45		2.6407e+00		1.0000e+00
			13.5		2.6348e+00		1.0000e+00
			13.55		2.6288e+00		1.0000e+00
			13.6		2.6229e+00		1.0000e+00
			13.65		2.6169e+00		1.0000e+00
			13.7		2.6108e+00		1.0000e+00
			13.75		2.6047e+00		1.0000e+00
			13.8		2.5986e+00		1.0000e+00
			13.85		2.5924e+00		1.0000e+00
			13.9		2.5850e+00		1.0000e+00
			13.95		2.5775e+00		1.0000e+00
