BEGIN_SCAN_DATA
	FORMAT=CC-Export V1.9                  
	FILE_CREATION_DATE=
	LAST_MODIFIED=11-Jan-2023 11:56:56
	BEGIN_SCAN  1
		TASK_NAME=RayStation Phantom Profiles & PDDs
		PROGRAM=RayStation
		COMMENT=RayStation Script Export
		MEAS_DATE=11-Jan-2023 11:56:56
		LINAC=RayStation
		MODALITY=X
		ISOCENTER=1000.00
		INPLANE_AXIS=Y
		CROSSPLANE_AXIS=X
		DEPTH_AXIS=Z
		INPLANE_AXIS_DIR=GUN_TARGET
		CROSSPLANE_AXIS_DIR=LEFT_RIGHT
		DEPTH_AXIS_DIR=UP_DOWN
		ENERGY=6.3
		NOMINAL_DMAX=20.00
		SSD=1000.0
		SCD=1000.00
		WEDGE_ANGLE=0.00
		FIELD_INPLANE=200.0
		FIELD_CROSSPLANE=200.0
		FIELD_TYPE=IRREGULAR
		GANTRY=0.00
		GANTRY_UPRIGHT_POSITION=0
		GANTRY_ROTATION=CW
		COLL_ANGLE=0.00
		REF_FIELD_DEPTH=50.00
		REF_FIELD_DEFINED=ISOCENTER
		FIELD_INPLANE=200.0
		FIELD_CROSSPLANE=200.0
		SCAN_CURVETYPE=INPLANE_PROFILE
		SCAN_DEPTH=50.0
		SCAN_OFFAXIS_INPLANE=0.00
		SCAN_OFFAXIS_CROSSPLANE=0.00
		SCAN_ANGLE=0.00
		SCAN_DIAGONAL=NOT_DIAGONAL
		SCAN_DIRECTION=NEGATIVE
		MEAS_MEDIUM=WATER
		MEAS_UNIT=cGy
		INCLINATION_ANGLE=0.00
		PRESSURE=1013.20
		TEMPERATURE=20.00
		NORM_TEMPERATURE=20.00
		CORRECTION_FACTOR=1.0000;
		BEGIN_DATA
			-5.0		0.0000e+00		1.0000e+00
			-4.95		0.0000e+00		1.0000e+00
			-4.9		0.0000e+00		1.0000e+00
			-4.85		0.0000e+00		1.0000e+00
			-4.8		0.0000e+00		1.0000e+00
			-4.75		0.0000e+00		1.0000e+00
			-4.7		0.0000e+00		1.0000e+00
			-4.65		0.0000e+00		1.0000e+00
			-4.6		0.0000e+00		1.0000e+00
			-4.55		1.3572e-04		1.0000e+00
			-4.5		2.7143e-04		1.0000e+00
			-4.45		4.0715e-04		1.0000e+00
			-4.4		5.4287e-04		1.0000e+00
			-4.35		2.4792e-03		1.0000e+00
			-4.3		4.4154e-03		1.0000e+00
			-4.25		6.3517e-03		1.0000e+00
			-4.2		8.2880e-03		1.0000e+00
			-4.15		8.5533e-03		1.0000e+00
			-4.1		8.8185e-03		1.0000e+00
			-4.05		9.0837e-03		1.0000e+00
			-4.0		9.3490e-03		1.0000e+00
			-3.95		9.4602e-03		1.0000e+00
			-3.9		9.5715e-03		1.0000e+00
			-3.85		9.6827e-03		1.0000e+00
			-3.8		9.7939e-03		1.0000e+00
			-3.75		9.9492e-03		1.0000e+00
			-3.7		1.0105e-02		1.0000e+00
			-3.65		1.0260e-02		1.0000e+00
			-3.6		1.0415e-02		1.0000e+00
			-3.55		1.0503e-02		1.0000e+00
			-3.5		1.0590e-02		1.0000e+00
			-3.45		1.0678e-02		1.0000e+00
			-3.4		1.0765e-02		1.0000e+00
			-3.35		1.0920e-02		1.0000e+00
			-3.3		1.1075e-02		1.0000e+00
			-3.25		1.1230e-02		1.0000e+00
			-3.2		1.1385e-02		1.0000e+00
			-3.15		1.1532e-02		1.0000e+00
			-3.1		1.1679e-02		1.0000e+00
			-3.05		1.1826e-02		1.0000e+00
			-3.0		1.1973e-02		1.0000e+00
			-2.95		1.2075e-02		1.0000e+00
			-2.9		1.2177e-02		1.0000e+00
			-2.85		1.2279e-02		1.0000e+00
			-2.8		1.2380e-02		1.0000e+00
			-2.75		1.2579e-02		1.0000e+00
			-2.7		1.2777e-02		1.0000e+00
			-2.65		1.2975e-02		1.0000e+00
			-2.6		1.3173e-02		1.0000e+00
			-2.55		1.3307e-02		1.0000e+00
			-2.5		1.3442e-02		1.0000e+00
			-2.45		1.3576e-02		1.0000e+00
			-2.4		1.3710e-02		1.0000e+00
			-2.35		1.3841e-02		1.0000e+00
			-2.3		1.3972e-02		1.0000e+00
			-2.25		1.4102e-02		1.0000e+00
			-2.2		1.4233e-02		1.0000e+00
			-2.15		1.4462e-02		1.0000e+00
			-2.1		1.4691e-02		1.0000e+00
			-2.05		1.4920e-02		1.0000e+00
			-2.0		1.5148e-02		1.0000e+00
			-1.95		1.5278e-02		1.0000e+00
			-1.9		1.5407e-02		1.0000e+00
			-1.85		1.5536e-02		1.0000e+00
			-1.8		1.5666e-02		1.0000e+00
			-1.75		1.5842e-02		1.0000e+00
			-1.7		1.6018e-02		1.0000e+00
			-1.65		1.6194e-02		1.0000e+00
			-1.6		1.6371e-02		1.0000e+00
			-1.55		1.6609e-02		1.0000e+00
			-1.5		1.6848e-02		1.0000e+00
			-1.45		1.7087e-02		1.0000e+00
			-1.4		1.7326e-02		1.0000e+00
			-1.35		1.7457e-02		1.0000e+00
			-1.3		1.7588e-02		1.0000e+00
			-1.25		1.7719e-02		1.0000e+00
			-1.2		1.7850e-02		1.0000e+00
			-1.15		1.8098e-02		1.0000e+00
			-1.1		1.8345e-02		1.0000e+00
			-1.05		1.8592e-02		1.0000e+00
			-1.0		1.8839e-02		1.0000e+00
			-0.95		1.9061e-02		1.0000e+00
			-0.9		1.9283e-02		1.0000e+00
			-0.85		1.9505e-02		1.0000e+00
			-0.8		1.9727e-02		1.0000e+00
			-0.75		1.9885e-02		1.0000e+00
			-0.7		2.0044e-02		1.0000e+00
			-0.65		2.0202e-02		1.0000e+00
			-0.6		2.0360e-02		1.0000e+00
			-0.55		2.0679e-02		1.0000e+00
			-0.5		2.0998e-02		1.0000e+00
			-0.45		2.1316e-02		1.0000e+00
			-0.4		2.1635e-02		1.0000e+00
			-0.35		2.1847e-02		1.0000e+00
			-0.3		2.2059e-02		1.0000e+00
			-0.25		2.2271e-02		1.0000e+00
			-0.2		2.2483e-02		1.0000e+00
			-0.15		2.2695e-02		1.0000e+00
			-0.1		2.2907e-02		1.0000e+00
			-0.05		2.3119e-02		1.0000e+00
			-0.0		2.3331e-02		1.0000e+00
			0.05		2.3709e-02		1.0000e+00
			0.1		2.4086e-02		1.0000e+00
			0.15		2.4464e-02		1.0000e+00
			0.2		2.4841e-02		1.0000e+00
			0.25		2.5057e-02		1.0000e+00
			0.3		2.5273e-02		1.0000e+00
			0.35		2.5488e-02		1.0000e+00
			0.4		2.5704e-02		1.0000e+00
			0.45		2.6016e-02		1.0000e+00
			0.5		2.6328e-02		1.0000e+00
			0.55		2.6640e-02		1.0000e+00
			0.6		2.6952e-02		1.0000e+00
			0.65		2.7358e-02		1.0000e+00
			0.7		2.7765e-02		1.0000e+00
			0.75		2.8172e-02		1.0000e+00
			0.8		2.8578e-02		1.0000e+00
			0.85		2.8820e-02		1.0000e+00
			0.9		2.9062e-02		1.0000e+00
			0.95		2.9304e-02		1.0000e+00
			1.0		2.9546e-02		1.0000e+00
			1.05		3.0022e-02		1.0000e+00
			1.1		3.0498e-02		1.0000e+00
			1.15		3.0974e-02		1.0000e+00
			1.2		3.1450e-02		1.0000e+00
			1.25		3.1868e-02		1.0000e+00
			1.3		3.2285e-02		1.0000e+00
			1.35		3.2703e-02		1.0000e+00
			1.4		3.3120e-02		1.0000e+00
			1.45		3.3442e-02		1.0000e+00
			1.5		3.3763e-02		1.0000e+00
			1.55		3.4085e-02		1.0000e+00
			1.6		3.4406e-02		1.0000e+00
			1.65		3.5094e-02		1.0000e+00
			1.7		3.5781e-02		1.0000e+00
			1.75		3.6469e-02		1.0000e+00
			1.8		3.7157e-02		1.0000e+00
			1.85		3.7607e-02		1.0000e+00
			1.9		3.8057e-02		1.0000e+00
			1.95		3.8507e-02		1.0000e+00
			2.0		3.8957e-02		1.0000e+00
			2.05		3.9450e-02		1.0000e+00
			2.1		3.9944e-02		1.0000e+00
			2.15		4.0437e-02		1.0000e+00
			2.2		4.0930e-02		1.0000e+00
			2.25		4.1842e-02		1.0000e+00
			2.3		4.2754e-02		1.0000e+00
			2.35		4.3666e-02		1.0000e+00
			2.4		4.4578e-02		1.0000e+00
			2.45		4.5095e-02		1.0000e+00
			2.5		4.5612e-02		1.0000e+00
			2.55		4.6129e-02		1.0000e+00
			2.6		4.6646e-02		1.0000e+00
			2.65		4.7487e-02		1.0000e+00
			2.7		4.8327e-02		1.0000e+00
			2.75		4.9168e-02		1.0000e+00
			2.8		5.0009e-02		1.0000e+00
			2.85		5.1107e-02		1.0000e+00
			2.9		5.2205e-02		1.0000e+00
			2.95		5.3303e-02		1.0000e+00
			3.0		5.4401e-02		1.0000e+00
			3.05		5.5072e-02		1.0000e+00
			3.1		5.5743e-02		1.0000e+00
			3.15		5.6414e-02		1.0000e+00
			3.2		5.7085e-02		1.0000e+00
			3.25		5.8521e-02		1.0000e+00
			3.3		5.9957e-02		1.0000e+00
			3.35		6.1393e-02		1.0000e+00
			3.4		6.2829e-02		1.0000e+00
			3.45		6.4099e-02		1.0000e+00
			3.5		6.5368e-02		1.0000e+00
			3.55		6.6637e-02		1.0000e+00
			3.6		6.7906e-02		1.0000e+00
			3.65		1.0706e-01		1.0000e+00
			3.7		1.4622e-01		1.0000e+00
			3.75		1.8538e-01		1.0000e+00
			3.8		2.2453e-01		1.0000e+00
			3.85		2.4481e-01		1.0000e+00
			3.9		2.6509e-01		1.0000e+00
			3.95		2.8537e-01		1.0000e+00
			4.0		3.0565e-01		1.0000e+00
			4.05		3.2595e-01		1.0000e+00
			4.1		3.4626e-01		1.0000e+00
			4.15		3.6657e-01		1.0000e+00
			4.2		3.8687e-01		1.0000e+00
			4.25		3.8970e-01		1.0000e+00
			4.3		3.9253e-01		1.0000e+00
			4.35		3.9535e-01		1.0000e+00
			4.4		3.9818e-01		1.0000e+00
			4.45		4.0101e-01		1.0000e+00
			4.5		4.0384e-01		1.0000e+00
			4.55		4.0667e-01		1.0000e+00
			4.6		4.0950e-01		1.0000e+00
			4.65		4.1233e-01		1.0000e+00
			4.7		4.1517e-01		1.0000e+00
			4.75		4.1800e-01		1.0000e+00
			4.8		4.2083e-01		1.0000e+00
			4.85		4.2367e-01		1.0000e+00
			4.9		4.2651e-01		1.0000e+00
			4.95		4.2934e-01		1.0000e+00
			5.0		4.3218e-01		1.0000e+00
			5.05		4.3635e-01		1.0000e+00
			5.1		4.4052e-01		1.0000e+00
			5.15		4.4469e-01		1.0000e+00
			5.2		4.4886e-01		1.0000e+00
			5.25		4.5304e-01		1.0000e+00
			5.3		4.5721e-01		1.0000e+00
			5.35		4.6139e-01		1.0000e+00
			5.4		4.6556e-01		1.0000e+00
			5.45		4.6974e-01		1.0000e+00
			5.5		4.7393e-01		1.0000e+00
			5.55		4.7811e-01		1.0000e+00
			5.6		4.8229e-01		1.0000e+00
			5.65		4.8647e-01		1.0000e+00
			5.7		4.9066e-01		1.0000e+00
			5.75		4.9484e-01		1.0000e+00
			5.8		4.9903e-01		1.0000e+00
			5.85		5.0396e-01		1.0000e+00
			5.9		5.0890e-01		1.0000e+00
			5.95		5.1383e-01		1.0000e+00
			6.0		5.1877e-01		1.0000e+00
			6.05		5.2371e-01		1.0000e+00
			6.1		5.2865e-01		1.0000e+00
			6.15		5.3359e-01		1.0000e+00
			6.2		5.3853e-01		1.0000e+00
			6.25		5.4348e-01		1.0000e+00
			6.3		5.4842e-01		1.0000e+00
			6.35		5.5337e-01		1.0000e+00
			6.4		5.5831e-01		1.0000e+00
			6.45		5.6327e-01		1.0000e+00
			6.5		5.6822e-01		1.0000e+00
			6.55		5.7317e-01		1.0000e+00
			6.6		5.7812e-01		1.0000e+00
			6.65		5.8455e-01		1.0000e+00
			6.7		5.9098e-01		1.0000e+00
			6.75		5.9740e-01		1.0000e+00
			6.8		6.0383e-01		1.0000e+00
			6.85		6.1026e-01		1.0000e+00
			6.9		6.1670e-01		1.0000e+00
			6.95		6.2313e-01		1.0000e+00
			7.0		6.2956e-01		1.0000e+00
			7.05		6.3600e-01		1.0000e+00
			7.1		6.4244e-01		1.0000e+00
			7.15		6.4889e-01		1.0000e+00
			7.2		6.5533e-01		1.0000e+00
			7.25		6.6178e-01		1.0000e+00
			7.3		6.6823e-01		1.0000e+00
			7.35		6.7468e-01		1.0000e+00
			7.4		6.8113e-01		1.0000e+00
			7.45		6.8934e-01		1.0000e+00
			7.5		6.9756e-01		1.0000e+00
			7.55		7.0578e-01		1.0000e+00
			7.6		7.1399e-01		1.0000e+00
			7.65		7.2222e-01		1.0000e+00
			7.7		7.3045e-01		1.0000e+00
			7.75		7.3868e-01		1.0000e+00
			7.8		7.4691e-01		1.0000e+00
			7.85		7.5515e-01		1.0000e+00
			7.9		7.6339e-01		1.0000e+00
			7.95		7.7162e-01		1.0000e+00
			8.0		7.7986e-01		1.0000e+00
			8.05		7.8810e-01		1.0000e+00
			8.1		7.9635e-01		1.0000e+00
			8.15		8.0459e-01		1.0000e+00
			8.2		8.1284e-01		1.0000e+00
			8.25		8.3372e-01		1.0000e+00
			8.3		8.5460e-01		1.0000e+00
			8.35		8.7548e-01		1.0000e+00
			8.4		8.9636e-01		1.0000e+00
			8.45		9.1726e-01		1.0000e+00
			8.5		9.3816e-01		1.0000e+00
			8.55		9.5906e-01		1.0000e+00
			8.6		9.7996e-01		1.0000e+00
			8.65		1.0009e+00		1.0000e+00
			8.7		1.0218e+00		1.0000e+00
			8.75		1.0427e+00		1.0000e+00
			8.8		1.0637e+00		1.0000e+00
			8.85		1.0846e+00		1.0000e+00
			8.9		1.1056e+00		1.0000e+00
			8.95		1.1265e+00		1.0000e+00
			9.0		1.1475e+00		1.0000e+00
			9.05		1.1671e+00		1.0000e+00
			9.1		1.1868e+00		1.0000e+00
			9.15		1.2064e+00		1.0000e+00
			9.2		1.2261e+00		1.0000e+00
			9.25		1.2457e+00		1.0000e+00
			9.3		1.2654e+00		1.0000e+00
			9.35		1.2851e+00		1.0000e+00
			9.4		1.3047e+00		1.0000e+00
			9.45		1.3244e+00		1.0000e+00
			9.5		1.3441e+00		1.0000e+00
			9.55		1.3638e+00		1.0000e+00
			9.6		1.3835e+00		1.0000e+00
			9.65		1.4032e+00		1.0000e+00
			9.7		1.4229e+00		1.0000e+00
			9.75		1.4426e+00		1.0000e+00
			9.8		1.4623e+00		1.0000e+00
			9.85		1.4840e+00		1.0000e+00
			9.9		1.5056e+00		1.0000e+00
			9.95		1.5273e+00		1.0000e+00
			10.0		1.5489e+00		1.0000e+00
			10.05		1.5706e+00		1.0000e+00
			10.1		1.5922e+00		1.0000e+00
			10.15		1.6139e+00		1.0000e+00
			10.2		1.6355e+00		1.0000e+00
			10.25		1.6572e+00		1.0000e+00
			10.3		1.6789e+00		1.0000e+00
			10.35		1.7006e+00		1.0000e+00
			10.4		1.7223e+00		1.0000e+00
			10.45		1.7440e+00		1.0000e+00
			10.5		1.7657e+00		1.0000e+00
			10.55		1.7874e+00		1.0000e+00
			10.6		1.8091e+00		1.0000e+00
			10.65		1.8329e+00		1.0000e+00
			10.7		1.8566e+00		1.0000e+00
			10.75		1.8804e+00		1.0000e+00
			10.8		1.9042e+00		1.0000e+00
			10.85		1.9280e+00		1.0000e+00
			10.9		1.9519e+00		1.0000e+00
			10.95		1.9757e+00		1.0000e+00
			11.0		1.9995e+00		1.0000e+00
			11.05		2.0233e+00		1.0000e+00
			11.1		2.0472e+00		1.0000e+00
			11.15		2.0710e+00		1.0000e+00
			11.2		2.0949e+00		1.0000e+00
			11.25		2.1187e+00		1.0000e+00
			11.3		2.1426e+00		1.0000e+00
			11.35		2.1664e+00		1.0000e+00
			11.4		2.1903e+00		1.0000e+00
			11.45		2.2211e+00		1.0000e+00
			11.5		2.2519e+00		1.0000e+00
			11.55		2.2827e+00		1.0000e+00
			11.6		2.3135e+00		1.0000e+00
			11.65		2.3443e+00		1.0000e+00
			11.7		2.3751e+00		1.0000e+00
			11.75		2.4059e+00		1.0000e+00
			11.8		2.4367e+00		1.0000e+00
			11.85		2.4676e+00		1.0000e+00
			11.9		2.4984e+00		1.0000e+00
			11.95		2.5292e+00		1.0000e+00
			12.0		2.5601e+00		1.0000e+00
			12.05		2.5910e+00		1.0000e+00
			12.1		2.6218e+00		1.0000e+00
			12.15		2.6527e+00		1.0000e+00
			12.2		2.6836e+00		1.0000e+00
			12.25		2.7200e+00		1.0000e+00
			12.3		2.7565e+00		1.0000e+00
			12.35		2.7929e+00		1.0000e+00
			12.4		2.8293e+00		1.0000e+00
			12.45		2.8658e+00		1.0000e+00
			12.5		2.9023e+00		1.0000e+00
			12.55		2.9388e+00		1.0000e+00
			12.6		2.9752e+00		1.0000e+00
			12.65		3.0117e+00		1.0000e+00
			12.7		3.0483e+00		1.0000e+00
			12.75		3.0848e+00		1.0000e+00
			12.8		3.1213e+00		1.0000e+00
			12.85		3.1578e+00		1.0000e+00
			12.9		3.1943e+00		1.0000e+00
			12.95		3.2308e+00		1.0000e+00
			13.0		3.2674e+00		1.0000e+00
			13.05		3.3348e+00		1.0000e+00
			13.1		3.4022e+00		1.0000e+00
			13.15		3.4696e+00		1.0000e+00
			13.2		3.5370e+00		1.0000e+00
			13.25		3.6045e+00		1.0000e+00
			13.3		3.6719e+00		1.0000e+00
			13.35		3.7394e+00		1.0000e+00
			13.4		3.8069e+00		1.0000e+00
			13.45		3.8739e+00		1.0000e+00
			13.5		3.9410e+00		1.0000e+00
			13.55		4.0080e+00		1.0000e+00
			13.6		4.0751e+00		1.0000e+00
			13.65		4.1422e+00		1.0000e+00
			13.7		4.2093e+00		1.0000e+00
			13.75		4.2765e+00		1.0000e+00
			13.8		4.3436e+00		1.0000e+00
			13.85		4.6024e+00		1.0000e+00
			13.9		4.8612e+00		1.0000e+00
			13.95		5.1200e+00		1.0000e+00
			14.0		5.3788e+00		1.0000e+00
			14.05		5.6367e+00		1.0000e+00
			14.1		5.8945e+00		1.0000e+00
			14.15		6.1524e+00		1.0000e+00
			14.2		6.4102e+00		1.0000e+00
			14.25		7.9623e+00		1.0000e+00
			14.3		9.5143e+00		1.0000e+00
			14.35		1.1066e+01		1.0000e+00
			14.4		1.2618e+01		1.0000e+00
			14.45		1.9579e+01		1.0000e+00
			14.5		2.6539e+01		1.0000e+00
			14.55		3.3499e+01		1.0000e+00
			14.6		4.0460e+01		1.0000e+00
			14.65		4.3277e+01		1.0000e+00
			14.7		4.6094e+01		1.0000e+00
			14.75		4.8912e+01		1.0000e+00
			14.8		5.1729e+01		1.0000e+00
			14.85		4.7870e+01		1.0000e+00
			14.9		4.4011e+01		1.0000e+00
			14.95		4.0152e+01		1.0000e+00
			15.0		3.6293e+01		1.0000e+00
			15.05		3.1027e+01		1.0000e+00
			15.1		2.5761e+01		1.0000e+00
			15.15		2.0495e+01		1.0000e+00
			15.2		1.5228e+01		1.0000e+00
			15.25		1.5198e+01		1.0000e+00
			15.3		1.5167e+01		1.0000e+00
			15.35		1.5136e+01		1.0000e+00
			15.4		1.5105e+01		1.0000e+00
			15.45		2.0733e+01		1.0000e+00
			15.5		2.6360e+01		1.0000e+00
			15.55		3.1988e+01		1.0000e+00
			15.6		3.7615e+01		1.0000e+00
			15.65		4.1572e+01		1.0000e+00
			15.7		4.5529e+01		1.0000e+00
			15.75		4.9486e+01		1.0000e+00
			15.8		5.3443e+01		1.0000e+00
			15.85		5.1273e+01		1.0000e+00
			15.9		4.9103e+01		1.0000e+00
			15.95		4.6932e+01		1.0000e+00
			16.0		4.4762e+01		1.0000e+00
			16.05		3.8116e+01		1.0000e+00
			16.1		3.1470e+01		1.0000e+00
			16.15		2.4824e+01		1.0000e+00
			16.2		1.8178e+01		1.0000e+00
			16.25		1.7326e+01		1.0000e+00
			16.3		1.6473e+01		1.0000e+00
			16.35		1.5621e+01		1.0000e+00
			16.4		1.4769e+01		1.0000e+00
			16.45		1.8765e+01		1.0000e+00
			16.5		2.2762e+01		1.0000e+00
			16.55		2.6758e+01		1.0000e+00
			16.6		3.0754e+01		1.0000e+00
			16.65		3.6231e+01		1.0000e+00
			16.7		4.1709e+01		1.0000e+00
			16.75		4.7186e+01		1.0000e+00
			16.8		5.2663e+01		1.0000e+00
			16.85		5.1968e+01		1.0000e+00
			16.9		5.1272e+01		1.0000e+00
			16.95		5.0576e+01		1.0000e+00
			17.0		4.9880e+01		1.0000e+00
			17.05		4.3268e+01		1.0000e+00
			17.1		3.6656e+01		1.0000e+00
			17.15		3.0043e+01		1.0000e+00
			17.2		2.3431e+01		1.0000e+00
			17.25		2.1311e+01		1.0000e+00
			17.3		1.9192e+01		1.0000e+00
			17.35		1.7072e+01		1.0000e+00
			17.4		1.4953e+01		1.0000e+00
			17.45		1.7345e+01		1.0000e+00
			17.5		1.9738e+01		1.0000e+00
			17.55		2.2130e+01		1.0000e+00
			17.6		2.4523e+01		1.0000e+00
			17.65		3.0955e+01		1.0000e+00
			17.7		3.7386e+01		1.0000e+00
			17.75		4.3818e+01		1.0000e+00
			17.8		5.0249e+01		1.0000e+00
			17.85		5.0842e+01		1.0000e+00
			17.9		5.1435e+01		1.0000e+00
			17.95		5.2029e+01		1.0000e+00
			18.0		5.2622e+01		1.0000e+00
			18.05		4.6984e+01		1.0000e+00
			18.1		4.1346e+01		1.0000e+00
			18.15		3.5708e+01		1.0000e+00
			18.2		3.0070e+01		1.0000e+00
			18.25		2.6463e+01		1.0000e+00
			18.3		2.2855e+01		1.0000e+00
			18.35		1.9248e+01		1.0000e+00
			18.4		1.5641e+01		1.0000e+00
			18.45		1.6509e+01		1.0000e+00
			18.5		1.7377e+01		1.0000e+00
			18.55		1.8245e+01		1.0000e+00
			18.6		1.9113e+01		1.0000e+00
			18.65		2.5984e+01		1.0000e+00
			18.7		3.2856e+01		1.0000e+00
			18.75		3.9727e+01		1.0000e+00
			18.8		4.6599e+01		1.0000e+00
			18.85		4.8449e+01		1.0000e+00
			18.9		5.0298e+01		1.0000e+00
			18.95		5.2148e+01		1.0000e+00
			19.0		5.3998e+01		1.0000e+00
			19.05		4.9838e+01		1.0000e+00
			19.1		4.5678e+01		1.0000e+00
			19.15		4.1517e+01		1.0000e+00
			19.2		3.7357e+01		1.0000e+00
			19.25		3.2302e+01		1.0000e+00
			19.3		2.7247e+01		1.0000e+00
			19.35		2.2192e+01		1.0000e+00
			19.4		1.7137e+01		1.0000e+00
			19.45		1.7186e+01		1.0000e+00
			19.5		1.7235e+01		1.0000e+00
			19.55		1.7284e+01		1.0000e+00
			19.6		1.7333e+01		1.0000e+00
			19.65		2.2860e+01		1.0000e+00
			19.7		2.8387e+01		1.0000e+00
			19.75		3.3914e+01		1.0000e+00
			19.8		3.9441e+01		1.0000e+00
			19.85		4.3069e+01		1.0000e+00
			19.9		4.6697e+01		1.0000e+00
			19.95		5.0325e+01		1.0000e+00
			20.0		5.3954e+01		1.0000e+00
			20.05		5.1637e+01		1.0000e+00
			20.1		4.9321e+01		1.0000e+00
			20.15		4.7005e+01		1.0000e+00
			20.2		4.4689e+01		1.0000e+00
			20.25		3.8270e+01		1.0000e+00
			20.3		3.1850e+01		1.0000e+00
			20.35		2.5430e+01		1.0000e+00
			20.4		1.9011e+01		1.0000e+00
			20.45		1.8274e+01		1.0000e+00
			20.5		1.7537e+01		1.0000e+00
			20.55		1.6801e+01		1.0000e+00
			20.6		1.6064e+01		1.0000e+00
			20.65		2.0069e+01		1.0000e+00
			20.7		2.4074e+01		1.0000e+00
			20.75		2.8079e+01		1.0000e+00
			20.8		3.2084e+01		1.0000e+00
			20.85		3.7305e+01		1.0000e+00
			20.9		4.2525e+01		1.0000e+00
			20.95		4.7746e+01		1.0000e+00
			21.0		5.2966e+01		1.0000e+00
			21.05		5.2111e+01		1.0000e+00
			21.1		5.1256e+01		1.0000e+00
			21.15		5.0401e+01		1.0000e+00
			21.2		4.9546e+01		1.0000e+00
			21.25		4.3062e+01		1.0000e+00
			21.3		3.6578e+01		1.0000e+00
			21.35		3.0095e+01		1.0000e+00
			21.4		2.3611e+01		1.0000e+00
			21.45		2.1686e+01		1.0000e+00
			21.5		1.9760e+01		1.0000e+00
			21.55		1.7834e+01		1.0000e+00
			21.6		1.5909e+01		1.0000e+00
			21.65		1.8398e+01		1.0000e+00
			21.7		2.0886e+01		1.0000e+00
			21.75		2.3375e+01		1.0000e+00
			21.8		2.5864e+01		1.0000e+00
			21.85		3.1983e+01		1.0000e+00
			21.9		3.8102e+01		1.0000e+00
			21.95		4.4220e+01		1.0000e+00
			22.0		5.0339e+01		1.0000e+00
			22.05		5.0755e+01		1.0000e+00
			22.1		5.1171e+01		1.0000e+00
			22.15		5.1586e+01		1.0000e+00
			22.2		5.2002e+01		1.0000e+00
			22.25		4.6433e+01		1.0000e+00
			22.3		4.0864e+01		1.0000e+00
			22.35		3.5295e+01		1.0000e+00
			22.4		2.9726e+01		1.0000e+00
			22.45		2.6314e+01		1.0000e+00
			22.5		2.2901e+01		1.0000e+00
			22.55		1.9488e+01		1.0000e+00
			22.6		1.6075e+01		1.0000e+00
			22.65		1.7018e+01		1.0000e+00
			22.7		1.7961e+01		1.0000e+00
			22.75		1.8903e+01		1.0000e+00
			22.8		1.9846e+01		1.0000e+00
			22.85		2.6625e+01		1.0000e+00
			22.9		3.3404e+01		1.0000e+00
			22.95		4.0184e+01		1.0000e+00
			23.0		4.6963e+01		1.0000e+00
			23.05		4.8592e+01		1.0000e+00
			23.1		5.0222e+01		1.0000e+00
			23.15		5.1852e+01		1.0000e+00
			23.2		5.3481e+01		1.0000e+00
			23.25		4.9272e+01		1.0000e+00
			23.3		4.5063e+01		1.0000e+00
			23.35		4.0853e+01		1.0000e+00
			23.4		3.6644e+01		1.0000e+00
			23.45		3.1825e+01		1.0000e+00
			23.5		2.7007e+01		1.0000e+00
			23.55		2.2188e+01		1.0000e+00
			23.6		1.7370e+01		1.0000e+00
			23.65		1.7539e+01		1.0000e+00
			23.7		1.7708e+01		1.0000e+00
			23.75		1.7877e+01		1.0000e+00
			23.8		1.8046e+01		1.0000e+00
			23.85		2.3479e+01		1.0000e+00
			23.9		2.8913e+01		1.0000e+00
			23.95		3.4346e+01		1.0000e+00
			24.0		3.9780e+01		1.0000e+00
			24.05		4.3149e+01		1.0000e+00
			24.1		4.6519e+01		1.0000e+00
			24.15		4.9889e+01		1.0000e+00
			24.2		5.3258e+01		1.0000e+00
			24.25		5.0818e+01		1.0000e+00
			24.3		4.8378e+01		1.0000e+00
			24.35		4.5937e+01		1.0000e+00
			24.4		4.3497e+01		1.0000e+00
			24.45		3.7362e+01		1.0000e+00
			24.5		3.1227e+01		1.0000e+00
			24.55		2.5093e+01		1.0000e+00
			24.6		1.8958e+01		1.0000e+00
			24.65		1.8339e+01		1.0000e+00
			24.7		1.7720e+01		1.0000e+00
			24.75		1.7101e+01		1.0000e+00
			24.8		1.6482e+01		1.0000e+00
			24.85		2.0478e+01		1.0000e+00
			24.9		2.4475e+01		1.0000e+00
			24.95		2.8471e+01		1.0000e+00
			25.0		3.2468e+01		1.0000e+00
			25.05		3.7468e+01		1.0000e+00
			25.1		4.2469e+01		1.0000e+00
			25.15		4.7470e+01		1.0000e+00
			25.2		5.2470e+01		1.0000e+00
			25.25		5.1522e+01		1.0000e+00
			25.3		5.0575e+01		1.0000e+00
			25.35		4.9627e+01		1.0000e+00
			25.4		4.8679e+01		1.0000e+00
			25.45		4.2281e+01		1.0000e+00
			25.5		3.5882e+01		1.0000e+00
			25.55		2.9483e+01		1.0000e+00
			25.6		2.3085e+01		1.0000e+00
			25.65		2.1330e+01		1.0000e+00
			25.7		1.9575e+01		1.0000e+00
			25.75		1.7820e+01		1.0000e+00
			25.8		1.6065e+01		1.0000e+00
			25.85		1.8639e+01		1.0000e+00
			25.9		2.1213e+01		1.0000e+00
			25.95		2.3786e+01		1.0000e+00
			26.0		2.6360e+01		1.0000e+00
			26.05		3.2331e+01		1.0000e+00
			26.1		3.8301e+01		1.0000e+00
			26.15		4.4272e+01		1.0000e+00
			26.2		5.0242e+01		1.0000e+00
			26.25		5.0541e+01		1.0000e+00
			26.3		5.0839e+01		1.0000e+00
			26.35		5.1137e+01		1.0000e+00
			26.4		5.1435e+01		1.0000e+00
			26.45		4.5858e+01		1.0000e+00
			26.5		4.0280e+01		1.0000e+00
			26.55		3.4703e+01		1.0000e+00
			26.6		2.9125e+01		1.0000e+00
			26.65		2.5862e+01		1.0000e+00
			26.7		2.2598e+01		1.0000e+00
			26.75		1.9335e+01		1.0000e+00
			26.8		1.6071e+01		1.0000e+00
			26.85		1.7152e+01		1.0000e+00
			26.9		1.8233e+01		1.0000e+00
			26.95		1.9315e+01		1.0000e+00
			27.0		2.0396e+01		1.0000e+00
			27.05		2.7200e+01		1.0000e+00
			27.1		3.4005e+01		1.0000e+00
			27.15		4.0809e+01		1.0000e+00
			27.2		4.7613e+01		1.0000e+00
			27.25		4.9094e+01		1.0000e+00
			27.3		5.0574e+01		1.0000e+00
			27.35		5.2055e+01		1.0000e+00
			27.4		5.3535e+01		1.0000e+00
			27.45		4.9179e+01		1.0000e+00
			27.5		4.4822e+01		1.0000e+00
			27.55		4.0466e+01		1.0000e+00
			27.6		3.6110e+01		1.0000e+00
			27.65		3.1338e+01		1.0000e+00
			27.7		2.6566e+01		1.0000e+00
			27.75		2.1794e+01		1.0000e+00
			27.8		1.7023e+01		1.0000e+00
			27.85		1.7312e+01		1.0000e+00
			27.9		1.7601e+01		1.0000e+00
			27.95		1.7891e+01		1.0000e+00
			28.0		1.8180e+01		1.0000e+00
			28.05		2.3799e+01		1.0000e+00
			28.1		2.9418e+01		1.0000e+00
			28.15		3.5036e+01		1.0000e+00
			28.2		4.0655e+01		1.0000e+00
			28.25		4.3940e+01		1.0000e+00
			28.3		4.7225e+01		1.0000e+00
			28.35		5.0509e+01		1.0000e+00
			28.4		5.3794e+01		1.0000e+00
			28.45		5.1173e+01		1.0000e+00
			28.5		4.8553e+01		1.0000e+00
			28.55		4.5932e+01		1.0000e+00
			28.6		4.3311e+01		1.0000e+00
			28.65		3.7127e+01		1.0000e+00
			28.7		3.0943e+01		1.0000e+00
			28.75		2.4759e+01		1.0000e+00
			28.8		1.8575e+01		1.0000e+00
			28.85		1.8069e+01		1.0000e+00
			28.9		1.7562e+01		1.0000e+00
			28.95		1.7056e+01		1.0000e+00
			29.0		1.6550e+01		1.0000e+00
			29.05		2.0764e+01		1.0000e+00
			29.1		2.4978e+01		1.0000e+00
			29.15		2.9192e+01		1.0000e+00
			29.2		3.3405e+01		1.0000e+00
			29.25		3.8426e+01		1.0000e+00
			29.3		4.3447e+01		1.0000e+00
			29.35		4.8467e+01		1.0000e+00
			29.4		5.3488e+01		1.0000e+00
			29.45		5.2370e+01		1.0000e+00
			29.5		5.1253e+01		1.0000e+00
			29.55		5.0135e+01		1.0000e+00
			29.6		4.9017e+01		1.0000e+00
			29.65		4.2333e+01		1.0000e+00
			29.7		3.5649e+01		1.0000e+00
			29.75		2.8965e+01		1.0000e+00
			29.8		2.2280e+01		1.0000e+00
			29.85		2.0624e+01		1.0000e+00
			29.9		1.8968e+01		1.0000e+00
			29.95		1.7313e+01		1.0000e+00
			30.0		1.5657e+01		1.0000e+00
			30.05		1.8436e+01		1.0000e+00
			30.1		2.1216e+01		1.0000e+00
			30.15		2.3995e+01		1.0000e+00
			30.2		2.6775e+01		1.0000e+00
			30.25		3.2858e+01		1.0000e+00
			30.3		3.8942e+01		1.0000e+00
			30.35		4.5026e+01		1.0000e+00
			30.4		5.1110e+01		1.0000e+00
			30.45		5.1254e+01		1.0000e+00
			30.5		5.1398e+01		1.0000e+00
			30.55		5.1542e+01		1.0000e+00
			30.6		5.1686e+01		1.0000e+00
			30.65		4.5852e+01		1.0000e+00
			30.7		4.0017e+01		1.0000e+00
			30.75		3.4182e+01		1.0000e+00
			30.8		2.8348e+01		1.0000e+00
			30.85		2.5115e+01		1.0000e+00
			30.9		2.1883e+01		1.0000e+00
			30.95		1.8650e+01		1.0000e+00
			31.0		1.5418e+01		1.0000e+00
			31.05		1.6681e+01		1.0000e+00
			31.1		1.7944e+01		1.0000e+00
			31.15		1.9207e+01		1.0000e+00
			31.2		2.0470e+01		1.0000e+00
			31.25		2.7368e+01		1.0000e+00
			31.3		3.4267e+01		1.0000e+00
			31.35		4.1165e+01		1.0000e+00
			31.4		4.8064e+01		1.0000e+00
			31.45		4.9459e+01		1.0000e+00
			31.5		5.0855e+01		1.0000e+00
			31.55		5.2250e+01		1.0000e+00
			31.6		5.3645e+01		1.0000e+00
			31.65		4.9014e+01		1.0000e+00
			31.7		4.4382e+01		1.0000e+00
			31.75		3.9751e+01		1.0000e+00
			31.8		3.5119e+01		1.0000e+00
			31.85		3.0323e+01		1.0000e+00
			31.9		2.5528e+01		1.0000e+00
			31.95		2.0732e+01		1.0000e+00
			32.0		1.5936e+01		1.0000e+00
			32.05		1.6348e+01		1.0000e+00
			32.1		1.6761e+01		1.0000e+00
			32.15		1.7173e+01		1.0000e+00
			32.2		1.7585e+01		1.0000e+00
			32.25		2.3478e+01		1.0000e+00
			32.3		2.9371e+01		1.0000e+00
			32.35		3.5264e+01		1.0000e+00
			32.4		4.1157e+01		1.0000e+00
			32.45		4.4340e+01		1.0000e+00
			32.5		4.7522e+01		1.0000e+00
			32.55		5.0705e+01		1.0000e+00
			32.6		5.3887e+01		1.0000e+00
			32.65		5.1001e+01		1.0000e+00
			32.7		4.8116e+01		1.0000e+00
			32.75		4.5230e+01		1.0000e+00
			32.8		4.2345e+01		1.0000e+00
			32.85		3.6042e+01		1.0000e+00
			32.9		2.9740e+01		1.0000e+00
			32.95		2.3437e+01		1.0000e+00
			33.0		1.7135e+01		1.0000e+00
			33.05		1.6731e+01		1.0000e+00
			33.1		1.6328e+01		1.0000e+00
			33.15		1.5924e+01		1.0000e+00
			33.2		1.5521e+01		1.0000e+00
			33.25		1.9965e+01		1.0000e+00
			33.3		2.4409e+01		1.0000e+00
			33.35		2.8853e+01		1.0000e+00
			33.4		3.3297e+01		1.0000e+00
			33.45		3.8263e+01		1.0000e+00
			33.5		4.3228e+01		1.0000e+00
			33.55		4.8193e+01		1.0000e+00
			33.6		5.3159e+01		1.0000e+00
			33.65		5.1835e+01		1.0000e+00
			33.7		5.0512e+01		1.0000e+00
			33.75		4.9188e+01		1.0000e+00
			33.8		4.7865e+01		1.0000e+00
			33.85		4.0930e+01		1.0000e+00
			33.9		3.3996e+01		1.0000e+00
			33.95		2.7061e+01		1.0000e+00
			34.0		2.0127e+01		1.0000e+00
			34.05		1.8567e+01		1.0000e+00
			34.1		1.7007e+01		1.0000e+00
			34.15		1.5448e+01		1.0000e+00
			34.2		1.3888e+01		1.0000e+00
			34.25		1.6837e+01		1.0000e+00
			34.3		1.9785e+01		1.0000e+00
			34.35		2.2733e+01		1.0000e+00
			34.4		2.5681e+01		1.0000e+00
			34.45		3.1803e+01		1.0000e+00
			34.5		3.7925e+01		1.0000e+00
			34.55		4.4047e+01		1.0000e+00
			34.6		5.0169e+01		1.0000e+00
			34.65		5.0004e+01		1.0000e+00
			34.7		4.9840e+01		1.0000e+00
			34.75		4.9676e+01		1.0000e+00
			34.8		4.9512e+01		1.0000e+00
			34.85		4.3115e+01		1.0000e+00
			34.9		3.6718e+01		1.0000e+00
			34.95		3.0322e+01		1.0000e+00
			35.0		2.3925e+01		1.0000e+00
			35.05		2.0140e+01		1.0000e+00
			35.1		1.6355e+01		1.0000e+00
			35.15		1.2570e+01		1.0000e+00
			35.2		8.7851e+00		1.0000e+00
			35.25		8.0878e+00		1.0000e+00
			35.3		7.3906e+00		1.0000e+00
			35.35		6.6933e+00		1.0000e+00
			35.4		5.9961e+00		1.0000e+00
			35.45		5.7278e+00		1.0000e+00
			35.5		5.4595e+00		1.0000e+00
			35.55		5.1912e+00		1.0000e+00
			35.6		4.9229e+00		1.0000e+00
			35.65		4.7406e+00		1.0000e+00
			35.7		4.5584e+00		1.0000e+00
			35.75		4.3761e+00		1.0000e+00
			35.8		4.1939e+00		1.0000e+00
			35.85		4.1198e+00		1.0000e+00
			35.9		4.0457e+00		1.0000e+00
			35.95		3.9716e+00		1.0000e+00
			36.0		3.8975e+00		1.0000e+00
			36.05		3.8234e+00		1.0000e+00
			36.1		3.7493e+00		1.0000e+00
			36.15		3.6752e+00		1.0000e+00
			36.2		3.6012e+00		1.0000e+00
			36.25		3.5549e+00		1.0000e+00
			36.3		3.5086e+00		1.0000e+00
			36.35		3.4624e+00		1.0000e+00
			36.4		3.4161e+00		1.0000e+00
			36.45		3.3699e+00		1.0000e+00
			36.5		3.3236e+00		1.0000e+00
			36.55		3.2774e+00		1.0000e+00
			36.6		3.2312e+00		1.0000e+00
			36.65		3.1850e+00		1.0000e+00
			36.7		3.1387e+00		1.0000e+00
			36.75		3.0925e+00		1.0000e+00
			36.8		3.0463e+00		1.0000e+00
			36.85		3.0002e+00		1.0000e+00
			36.9		2.9540e+00		1.0000e+00
			36.95		2.9078e+00		1.0000e+00
			37.0		2.8616e+00		1.0000e+00
			37.05		2.8285e+00		1.0000e+00
			37.1		2.7953e+00		1.0000e+00
			37.15		2.7621e+00		1.0000e+00
			37.2		2.7290e+00		1.0000e+00
			37.25		2.6958e+00		1.0000e+00
			37.3		2.6627e+00		1.0000e+00
			37.35		2.6295e+00		1.0000e+00
			37.4		2.5964e+00		1.0000e+00
			37.45		2.5632e+00		1.0000e+00
			37.5		2.5301e+00		1.0000e+00
			37.55		2.4970e+00		1.0000e+00
			37.6		2.4639e+00		1.0000e+00
			37.65		2.4308e+00		1.0000e+00
			37.7		2.3977e+00		1.0000e+00
			37.75		2.3646e+00		1.0000e+00
			37.8		2.3315e+00		1.0000e+00
			37.85		2.3060e+00		1.0000e+00
			37.9		2.2805e+00		1.0000e+00
			37.95		2.2549e+00		1.0000e+00
			38.0		2.2294e+00		1.0000e+00
			38.05		2.2039e+00		1.0000e+00
			38.1		2.1785e+00		1.0000e+00
			38.15		2.1530e+00		1.0000e+00
			38.2		2.1275e+00		1.0000e+00
			38.25		2.1020e+00		1.0000e+00
			38.3		2.0765e+00		1.0000e+00
			38.35		2.0510e+00		1.0000e+00
			38.4		2.0256e+00		1.0000e+00
			38.45		2.0001e+00		1.0000e+00
			38.5		1.9747e+00		1.0000e+00
			38.55		1.9492e+00		1.0000e+00
			38.6		1.9237e+00		1.0000e+00
			38.65		1.9017e+00		1.0000e+00
			38.7		1.8797e+00		1.0000e+00
			38.75		1.8576e+00		1.0000e+00
			38.8		1.8356e+00		1.0000e+00
			38.85		1.8136e+00		1.0000e+00
			38.9		1.7915e+00		1.0000e+00
			38.95		1.7695e+00		1.0000e+00
			39.0		1.7475e+00		1.0000e+00
			39.05		1.7255e+00		1.0000e+00
			39.1		1.7035e+00		1.0000e+00
			39.15		1.6815e+00		1.0000e+00
			39.2		1.6595e+00		1.0000e+00
			39.25		1.6375e+00		1.0000e+00
			39.3		1.6155e+00		1.0000e+00
			39.35		1.5935e+00		1.0000e+00
			39.4		1.5716e+00		1.0000e+00
			39.45		1.5515e+00		1.0000e+00
			39.5		1.5315e+00		1.0000e+00
			39.55		1.5115e+00		1.0000e+00
			39.6		1.4915e+00		1.0000e+00
			39.65		1.4715e+00		1.0000e+00
