BEGIN_SCAN_DATA
	FORMAT=CC-Export V1.9                  
	FILE_CREATION_DATE=
	LAST_MODIFIED=11-Jan-2023 10:50:22
	BEGIN_SCAN  1
		TASK_NAME=RayStation Phantom Profiles & PDDs
		PROGRAM=RayStation
		COMMENT=RayStation Script Export
		MEAS_DATE=11-Jan-2023 10:50:22
		LINAC=RayStation
		MODALITY=X
		ISOCENTER=1000.00
		INPLANE_AXIS=Y
		CROSSPLANE_AXIS=X
		DEPTH_AXIS=Z
		INPLANE_AXIS_DIR=GUN_TARGET
		CROSSPLANE_AXIS_DIR=LEFT_RIGHT
		DEPTH_AXIS_DIR=UP_DOWN
		ENERGY=6.3
		NOMINAL_DMAX=20.00
		SSD=1000.0
		SCD=1000.00
		WEDGE_ANGLE=0.00
		FIELD_INPLANE=200.0
		FIELD_CROSSPLANE=200.0
		FIELD_TYPE=IRREGULAR
		GANTRY=0.00
		GANTRY_UPRIGHT_POSITION=0
		GANTRY_ROTATION=CW
		COLL_ANGLE=0.00
		REF_FIELD_DEPTH=50.00
		REF_FIELD_DEFINED=ISOCENTER
		FIELD_INPLANE=200.0
		FIELD_CROSSPLANE=200.0
		SCAN_CURVETYPE=PDD
		SCAN_OFFAXIS_INPLANE=0.00
		SCAN_OFFAXIS_CROSSPLANE=0.00
		SCAN_ANGLE=0.00
		SCAN_DIAGONAL=NOT_DIAGONAL
		SCAN_DIRECTION=NEGATIVE
		MEAS_MEDIUM=WATER
		MEAS_TIME=1.000
		MEAS_UNIT=cGy
		INCLINATION_ANGLE=0.00
		PRESSURE=1013.20
		TEMPERATURE=20.00
		NORM_TEMPERATURE=20.00
		CORRECTION_FACTOR=1.0000
		BEGIN_DATA
			-30.05		1.3129e+01		1.0000e+00
			-30.0		1.9693e+01		1.0000e+00
			-29.95		2.6257e+01		1.0000e+00
			-29.9		2.7723e+01		1.0000e+00
			-29.85		2.9190e+01		1.0000e+00
			-29.8		3.0656e+01		1.0000e+00
			-29.75		3.2122e+01		1.0000e+00
			-29.7		3.2689e+01		1.0000e+00
			-29.65		3.3256e+01		1.0000e+00
			-29.6		3.3823e+01		1.0000e+00
			-29.55		3.4389e+01		1.0000e+00
			-29.5		3.4723e+01		1.0000e+00
			-29.45		3.5056e+01		1.0000e+00
			-29.4		3.5390e+01		1.0000e+00
			-29.35		3.5723e+01		1.0000e+00
			-29.3		3.5904e+01		1.0000e+00
			-29.25		3.6085e+01		1.0000e+00
			-29.2		3.6266e+01		1.0000e+00
			-29.15		3.6446e+01		1.0000e+00
			-29.1		3.6536e+01		1.0000e+00
			-29.05		3.6626e+01		1.0000e+00
			-29.0		3.6716e+01		1.0000e+00
			-28.95		3.6807e+01		1.0000e+00
			-28.9		3.6838e+01		1.0000e+00
			-28.85		3.6869e+01		1.0000e+00
			-28.8		3.6900e+01		1.0000e+00
			-28.75		3.6931e+01		1.0000e+00
			-28.7		3.6911e+01		1.0000e+00
			-28.65		3.6890e+01		1.0000e+00
			-28.6		3.6870e+01		1.0000e+00
			-28.55		3.6849e+01		1.0000e+00
			-28.5		3.6821e+01		1.0000e+00
			-28.45		3.6793e+01		1.0000e+00
			-28.4		3.6765e+01		1.0000e+00
			-28.35		3.6736e+01		1.0000e+00
			-28.3		3.6681e+01		1.0000e+00
			-28.25		3.6625e+01		1.0000e+00
			-28.2		3.6569e+01		1.0000e+00
			-28.15		3.6513e+01		1.0000e+00
			-28.1		3.6462e+01		1.0000e+00
			-28.05		3.6411e+01		1.0000e+00
			-28.0		3.6360e+01		1.0000e+00
			-27.95		3.6309e+01		1.0000e+00
			-27.9		3.6238e+01		1.0000e+00
			-27.85		3.6166e+01		1.0000e+00
			-27.8		3.6095e+01		1.0000e+00
			-27.75		3.6024e+01		1.0000e+00
			-27.7		3.5959e+01		1.0000e+00
			-27.65		3.5895e+01		1.0000e+00
			-27.6		3.5831e+01		1.0000e+00
			-27.55		3.5766e+01		1.0000e+00
			-27.5		3.5702e+01		1.0000e+00
			-27.45		3.5638e+01		1.0000e+00
			-27.4		3.5574e+01		1.0000e+00
			-27.35		3.5509e+01		1.0000e+00
			-27.3		3.5432e+01		1.0000e+00
			-27.25		3.5355e+01		1.0000e+00
			-27.2		3.5277e+01		1.0000e+00
			-27.15		3.5200e+01		1.0000e+00
			-27.1		3.5137e+01		1.0000e+00
			-27.05		3.5074e+01		1.0000e+00
			-27.0		3.5011e+01		1.0000e+00
			-26.95		3.4948e+01		1.0000e+00
			-26.9		3.4875e+01		1.0000e+00
			-26.85		3.4802e+01		1.0000e+00
			-26.8		3.4729e+01		1.0000e+00
			-26.75		3.4656e+01		1.0000e+00
			-26.7		3.4595e+01		1.0000e+00
			-26.65		3.4534e+01		1.0000e+00
			-26.6		3.4472e+01		1.0000e+00
			-26.55		3.4411e+01		1.0000e+00
			-26.5		3.4351e+01		1.0000e+00
			-26.45		3.4291e+01		1.0000e+00
			-26.4		3.4230e+01		1.0000e+00
			-26.35		3.4170e+01		1.0000e+00
			-26.3		3.4098e+01		1.0000e+00
			-26.25		3.4026e+01		1.0000e+00
			-26.2		3.3954e+01		1.0000e+00
			-26.15		3.3881e+01		1.0000e+00
			-26.1		3.3821e+01		1.0000e+00
			-26.05		3.3761e+01		1.0000e+00
			-26.0		3.3701e+01		1.0000e+00
			-25.95		3.3640e+01		1.0000e+00
			-25.9		3.3571e+01		1.0000e+00
			-25.85		3.3501e+01		1.0000e+00
			-25.8		3.3431e+01		1.0000e+00
			-25.75		3.3361e+01		1.0000e+00
			-25.7		3.3302e+01		1.0000e+00
			-25.65		3.3242e+01		1.0000e+00
			-25.6		3.3183e+01		1.0000e+00
			-25.55		3.3124e+01		1.0000e+00
			-25.5		3.3065e+01		1.0000e+00
			-25.45		3.3006e+01		1.0000e+00
			-25.4		3.2947e+01		1.0000e+00
			-25.35		3.2889e+01		1.0000e+00
			-25.3		3.2815e+01		1.0000e+00
			-25.25		3.2742e+01		1.0000e+00
			-25.2		3.2669e+01		1.0000e+00
			-25.15		3.2595e+01		1.0000e+00
			-25.1		3.2532e+01		1.0000e+00
			-25.05		3.2468e+01		1.0000e+00
			-25.0		3.2404e+01		1.0000e+00
			-24.95		3.2340e+01		1.0000e+00
			-24.9		3.2268e+01		1.0000e+00
			-24.85		3.2196e+01		1.0000e+00
			-24.8		3.2125e+01		1.0000e+00
			-24.75		3.2053e+01		1.0000e+00
			-24.7		3.1990e+01		1.0000e+00
			-24.65		3.1927e+01		1.0000e+00
			-24.6		3.1864e+01		1.0000e+00
			-24.55		3.1801e+01		1.0000e+00
			-24.5		3.1738e+01		1.0000e+00
			-24.45		3.1675e+01		1.0000e+00
			-24.4		3.1612e+01		1.0000e+00
			-24.35		3.1549e+01		1.0000e+00
			-24.3		3.1473e+01		1.0000e+00
			-24.25		3.1396e+01		1.0000e+00
			-24.2		3.1320e+01		1.0000e+00
			-24.15		3.1244e+01		1.0000e+00
			-24.1		3.1177e+01		1.0000e+00
			-24.05		3.1111e+01		1.0000e+00
			-24.0		3.1044e+01		1.0000e+00
			-23.95		3.0977e+01		1.0000e+00
			-23.9		3.0903e+01		1.0000e+00
			-23.85		3.0829e+01		1.0000e+00
			-23.8		3.0755e+01		1.0000e+00
			-23.75		3.0681e+01		1.0000e+00
			-23.7		3.0616e+01		1.0000e+00
			-23.65		3.0550e+01		1.0000e+00
			-23.6		3.0485e+01		1.0000e+00
			-23.55		3.0419e+01		1.0000e+00
			-23.5		3.0355e+01		1.0000e+00
			-23.45		3.0292e+01		1.0000e+00
			-23.4		3.0228e+01		1.0000e+00
			-23.35		3.0164e+01		1.0000e+00
			-23.3		3.0091e+01		1.0000e+00
			-23.25		3.0019e+01		1.0000e+00
			-23.2		2.9946e+01		1.0000e+00
			-23.15		2.9873e+01		1.0000e+00
			-23.1		2.9809e+01		1.0000e+00
			-23.05		2.9746e+01		1.0000e+00
			-23.0		2.9682e+01		1.0000e+00
			-22.95		2.9618e+01		1.0000e+00
			-22.9		2.9548e+01		1.0000e+00
			-22.85		2.9477e+01		1.0000e+00
			-22.8		2.9407e+01		1.0000e+00
			-22.75		2.9336e+01		1.0000e+00
			-22.7		2.9274e+01		1.0000e+00
			-22.65		2.9212e+01		1.0000e+00
			-22.6		2.9149e+01		1.0000e+00
			-22.55		2.9087e+01		1.0000e+00
			-22.5		2.9026e+01		1.0000e+00
			-22.45		2.8964e+01		1.0000e+00
			-22.4		2.8903e+01		1.0000e+00
			-22.35		2.8841e+01		1.0000e+00
			-22.3		2.8771e+01		1.0000e+00
			-22.25		2.8701e+01		1.0000e+00
			-22.2		2.8631e+01		1.0000e+00
			-22.15		2.8562e+01		1.0000e+00
			-22.1		2.8501e+01		1.0000e+00
			-22.05		2.8440e+01		1.0000e+00
			-22.0		2.8379e+01		1.0000e+00
			-21.95		2.8318e+01		1.0000e+00
			-21.9		2.8251e+01		1.0000e+00
			-21.85		2.8184e+01		1.0000e+00
			-21.8		2.8117e+01		1.0000e+00
			-21.75		2.8050e+01		1.0000e+00
			-21.7		2.7992e+01		1.0000e+00
			-21.65		2.7934e+01		1.0000e+00
			-21.6		2.7875e+01		1.0000e+00
			-21.55		2.7817e+01		1.0000e+00
			-21.5		2.7759e+01		1.0000e+00
			-21.45		2.7702e+01		1.0000e+00
			-21.4		2.7644e+01		1.0000e+00
			-21.35		2.7586e+01		1.0000e+00
			-21.3		2.7520e+01		1.0000e+00
			-21.25		2.7454e+01		1.0000e+00
			-21.2		2.7387e+01		1.0000e+00
			-21.15		2.7321e+01		1.0000e+00
			-21.1		2.7262e+01		1.0000e+00
			-21.05		2.7202e+01		1.0000e+00
			-21.0		2.7143e+01		1.0000e+00
			-20.95		2.7084e+01		1.0000e+00
			-20.9		2.7017e+01		1.0000e+00
			-20.85		2.6950e+01		1.0000e+00
			-20.8		2.6884e+01		1.0000e+00
			-20.75		2.6817e+01		1.0000e+00
			-20.7		2.6757e+01		1.0000e+00
			-20.65		2.6697e+01		1.0000e+00
			-20.6		2.6637e+01		1.0000e+00
			-20.55		2.6577e+01		1.0000e+00
			-20.5		2.6518e+01		1.0000e+00
			-20.45		2.6459e+01		1.0000e+00
			-20.4		2.6400e+01		1.0000e+00
			-20.35		2.6340e+01		1.0000e+00
			-20.3		2.6275e+01		1.0000e+00
			-20.25		2.6209e+01		1.0000e+00
			-20.2		2.6143e+01		1.0000e+00
			-20.15		2.6077e+01		1.0000e+00
			-20.1		2.6019e+01		1.0000e+00
			-20.05		2.5962e+01		1.0000e+00
			-20.0		2.5904e+01		1.0000e+00
			-19.95		2.5846e+01		1.0000e+00
			-19.9		2.5782e+01		1.0000e+00
			-19.85		2.5719e+01		1.0000e+00
			-19.8		2.5655e+01		1.0000e+00
			-19.75		2.5591e+01		1.0000e+00
			-19.7		2.5534e+01		1.0000e+00
			-19.65		2.5478e+01		1.0000e+00
			-19.6		2.5421e+01		1.0000e+00
			-19.55		2.5364e+01		1.0000e+00
			-19.5		2.5307e+01		1.0000e+00
			-19.45		2.5250e+01		1.0000e+00
			-19.4		2.5193e+01		1.0000e+00
			-19.35		2.5136e+01		1.0000e+00
			-19.3		2.5071e+01		1.0000e+00
			-19.25		2.5007e+01		1.0000e+00
			-19.2		2.4942e+01		1.0000e+00
			-19.15		2.4878e+01		1.0000e+00
			-19.1		2.4819e+01		1.0000e+00
			-19.05		2.4761e+01		1.0000e+00
			-19.0		2.4702e+01		1.0000e+00
			-18.95		2.4644e+01		1.0000e+00
			-18.9		2.4580e+01		1.0000e+00
			-18.85		2.4517e+01		1.0000e+00
			-18.8		2.4453e+01		1.0000e+00
			-18.75		2.4389e+01		1.0000e+00
			-18.7		2.4332e+01		1.0000e+00
			-18.65		2.4275e+01		1.0000e+00
			-18.6		2.4217e+01		1.0000e+00
			-18.55		2.4160e+01		1.0000e+00
			-18.5		2.4104e+01		1.0000e+00
			-18.45		2.4047e+01		1.0000e+00
			-18.4		2.3990e+01		1.0000e+00
			-18.35		2.3934e+01		1.0000e+00
			-18.3		2.3871e+01		1.0000e+00
			-18.25		2.3809e+01		1.0000e+00
			-18.2		2.3746e+01		1.0000e+00
			-18.15		2.3684e+01		1.0000e+00
			-18.1		2.3628e+01		1.0000e+00
			-18.05		2.3571e+01		1.0000e+00
			-18.0		2.3515e+01		1.0000e+00
			-17.95		2.3459e+01		1.0000e+00
			-17.9		2.3399e+01		1.0000e+00
			-17.85		2.3339e+01		1.0000e+00
			-17.8		2.3278e+01		1.0000e+00
			-17.75		2.3218e+01		1.0000e+00
			-17.7		2.3164e+01		1.0000e+00
			-17.65		2.3110e+01		1.0000e+00
			-17.6		2.3055e+01		1.0000e+00
			-17.55		2.3001e+01		1.0000e+00
			-17.5		2.2947e+01		1.0000e+00
			-17.45		2.2894e+01		1.0000e+00
			-17.4		2.2840e+01		1.0000e+00
			-17.35		2.2787e+01		1.0000e+00
			-17.3		2.2728e+01		1.0000e+00
			-17.25		2.2669e+01		1.0000e+00
			-17.2		2.2611e+01		1.0000e+00
			-17.15		2.2552e+01		1.0000e+00
			-17.1		2.2499e+01		1.0000e+00
			-17.05		2.2446e+01		1.0000e+00
			-17.0		2.2394e+01		1.0000e+00
			-16.95		2.2341e+01		1.0000e+00
			-16.9		2.2284e+01		1.0000e+00
			-16.85		2.2226e+01		1.0000e+00
			-16.8		2.2169e+01		1.0000e+00
			-16.75		2.2112e+01		1.0000e+00
			-16.7		2.2060e+01		1.0000e+00
			-16.65		2.2008e+01		1.0000e+00
			-16.6		2.1955e+01		1.0000e+00
			-16.55		2.1903e+01		1.0000e+00
			-16.5		2.1852e+01		1.0000e+00
			-16.45		2.1800e+01		1.0000e+00
			-16.4		2.1749e+01		1.0000e+00
			-16.35		2.1697e+01		1.0000e+00
			-16.3		2.1641e+01		1.0000e+00
			-16.25		2.1586e+01		1.0000e+00
			-16.2		2.1530e+01		1.0000e+00
			-16.15		2.1474e+01		1.0000e+00
			-16.1		2.1423e+01		1.0000e+00
			-16.05		2.1373e+01		1.0000e+00
			-16.0		2.1323e+01		1.0000e+00
			-15.95		2.1272e+01		1.0000e+00
			-15.9		2.1218e+01		1.0000e+00
			-15.85		2.1164e+01		1.0000e+00
			-15.8		2.1110e+01		1.0000e+00
			-15.75		2.1056e+01		1.0000e+00
			-15.7		2.1007e+01		1.0000e+00
			-15.65		2.0958e+01		1.0000e+00
			-15.6		2.0909e+01		1.0000e+00
			-15.55		2.0860e+01		1.0000e+00
			-15.5		2.0812e+01		1.0000e+00
			-15.45		2.0763e+01		1.0000e+00
			-15.4		2.0715e+01		1.0000e+00
			-15.35		2.0667e+01		1.0000e+00
			-15.3		2.0615e+01		1.0000e+00
			-15.25		2.0562e+01		1.0000e+00
			-15.2		2.0510e+01		1.0000e+00
			-15.15		2.0457e+01		1.0000e+00
			-15.1		2.0409e+01		1.0000e+00
			-15.05		2.0360e+01		1.0000e+00
			-15.0		2.0311e+01		1.0000e+00
			-14.95		2.0263e+01		1.0000e+00
			-14.9		2.0210e+01		1.0000e+00
			-14.85		2.0158e+01		1.0000e+00
			-14.8		2.0105e+01		1.0000e+00
			-14.75		2.0052e+01		1.0000e+00
			-14.7		2.0003e+01		1.0000e+00
			-14.65		1.9954e+01		1.0000e+00
			-14.6		1.9905e+01		1.0000e+00
			-14.55		1.9856e+01		1.0000e+00
			-14.5		1.9807e+01		1.0000e+00
			-14.45		1.9759e+01		1.0000e+00
			-14.4		1.9711e+01		1.0000e+00
			-14.35		1.9663e+01		1.0000e+00
			-14.3		1.9611e+01		1.0000e+00
			-14.25		1.9559e+01		1.0000e+00
			-14.2		1.9507e+01		1.0000e+00
			-14.15		1.9455e+01		1.0000e+00
			-14.1		1.9407e+01		1.0000e+00
			-14.05		1.9359e+01		1.0000e+00
			-14.0		1.9311e+01		1.0000e+00
			-13.95		1.9264e+01		1.0000e+00
			-13.9		1.9213e+01		1.0000e+00
			-13.85		1.9162e+01		1.0000e+00
			-13.8		1.9111e+01		1.0000e+00
			-13.75		1.9060e+01		1.0000e+00
			-13.7		1.9014e+01		1.0000e+00
			-13.65		1.8967e+01		1.0000e+00
			-13.6		1.8921e+01		1.0000e+00
			-13.55		1.8874e+01		1.0000e+00
			-13.5		1.8829e+01		1.0000e+00
			-13.45		1.8783e+01		1.0000e+00
			-13.4		1.8737e+01		1.0000e+00
			-13.35		1.8692e+01		1.0000e+00
			-13.3		1.8642e+01		1.0000e+00
			-13.25		1.8593e+01		1.0000e+00
			-13.2		1.8544e+01		1.0000e+00
			-13.15		1.8495e+01		1.0000e+00
			-13.1		1.8449e+01		1.0000e+00
			-13.05		1.8404e+01		1.0000e+00
			-13.0		1.8359e+01		1.0000e+00
			-12.95		1.8314e+01		1.0000e+00
			-12.9		1.8266e+01		1.0000e+00
			-12.85		1.8218e+01		1.0000e+00
			-12.8		1.8170e+01		1.0000e+00
			-12.75		1.8122e+01		1.0000e+00
			-12.7		1.8078e+01		1.0000e+00
			-12.65		1.8033e+01		1.0000e+00
			-12.6		1.7989e+01		1.0000e+00
			-12.55		1.7945e+01		1.0000e+00
			-12.5		1.7902e+01		1.0000e+00
			-12.45		1.7858e+01		1.0000e+00
			-12.4		1.7815e+01		1.0000e+00
			-12.35		1.7771e+01		1.0000e+00
			-12.3		1.7723e+01		1.0000e+00
			-12.25		1.7675e+01		1.0000e+00
			-12.2		1.7627e+01		1.0000e+00
			-12.15		1.7579e+01		1.0000e+00
			-12.1		1.7534e+01		1.0000e+00
			-12.05		1.7490e+01		1.0000e+00
			-12.0		1.7446e+01		1.0000e+00
			-11.95		1.7401e+01		1.0000e+00
			-11.9		1.7354e+01		1.0000e+00
			-11.85		1.7307e+01		1.0000e+00
			-11.8		1.7259e+01		1.0000e+00
			-11.75		1.7212e+01		1.0000e+00
			-11.7		1.7168e+01		1.0000e+00
			-11.65		1.7125e+01		1.0000e+00
			-11.6		1.7081e+01		1.0000e+00
			-11.55		1.7037e+01		1.0000e+00
			-11.5		1.6994e+01		1.0000e+00
			-11.45		1.6951e+01		1.0000e+00
			-11.4		1.6908e+01		1.0000e+00
			-11.35		1.6865e+01		1.0000e+00
			-11.3		1.6819e+01		1.0000e+00
			-11.25		1.6774e+01		1.0000e+00
			-11.2		1.6728e+01		1.0000e+00
			-11.15		1.6682e+01		1.0000e+00
			-11.1		1.6640e+01		1.0000e+00
			-11.05		1.6597e+01		1.0000e+00
			-11.0		1.6555e+01		1.0000e+00
			-10.95		1.6513e+01		1.0000e+00
			-10.9		1.6468e+01		1.0000e+00
			-10.85		1.6424e+01		1.0000e+00
			-10.8		1.6379e+01		1.0000e+00
			-10.75		1.6335e+01		1.0000e+00
			-10.7		1.6294e+01		1.0000e+00
			-10.65		1.6253e+01		1.0000e+00
			-10.6		1.6211e+01		1.0000e+00
			-10.55		1.6170e+01		1.0000e+00
			-10.5		1.6129e+01		1.0000e+00
			-10.45		1.6089e+01		1.0000e+00
			-10.4		1.6048e+01		1.0000e+00
			-10.35		1.6007e+01		1.0000e+00
			-10.3		1.5963e+01		1.0000e+00
			-10.25		1.5920e+01		1.0000e+00
			-10.2		1.5876e+01		1.0000e+00
			-10.15		1.5833e+01		1.0000e+00
			-10.1		1.5792e+01		1.0000e+00
			-10.05		1.5752e+01		1.0000e+00
			-10.0		1.5712e+01		1.0000e+00
			-9.95		1.5672e+01		1.0000e+00
			-9.9		1.5629e+01		1.0000e+00
			-9.85		1.5587e+01		1.0000e+00
			-9.8		1.5545e+01		1.0000e+00
			-9.75		1.5503e+01		1.0000e+00
			-9.7		1.5463e+01		1.0000e+00
			-9.65		1.5424e+01		1.0000e+00
			-9.6		1.5385e+01		1.0000e+00
			-9.55		1.5345e+01		1.0000e+00
			-9.5		1.5307e+01		1.0000e+00
			-9.45		1.5268e+01		1.0000e+00
			-9.4		1.5229e+01		1.0000e+00
			-9.35		1.5191e+01		1.0000e+00
			-9.3		1.5150e+01		1.0000e+00
			-9.25		1.5108e+01		1.0000e+00
			-9.2		1.5067e+01		1.0000e+00
			-9.15		1.5026e+01		1.0000e+00
			-9.1		1.4988e+01		1.0000e+00
			-9.05		1.4950e+01		1.0000e+00
			-9.0		1.4912e+01		1.0000e+00
			-8.95		1.4874e+01		1.0000e+00
			-8.9		1.4834e+01		1.0000e+00
			-8.85		1.4794e+01		1.0000e+00
			-8.8		1.4754e+01		1.0000e+00
			-8.75		1.4715e+01		1.0000e+00
			-8.7		1.4678e+01		1.0000e+00
			-8.65		1.4641e+01		1.0000e+00
			-8.6		1.4604e+01		1.0000e+00
			-8.55		1.4567e+01		1.0000e+00
			-8.5		1.4531e+01		1.0000e+00
			-8.45		1.4495e+01		1.0000e+00
			-8.4		1.4459e+01		1.0000e+00
			-8.35		1.4422e+01		1.0000e+00
			-8.3		1.4384e+01		1.0000e+00
			-8.25		1.4346e+01		1.0000e+00
			-8.2		1.4307e+01		1.0000e+00
			-8.15		1.4269e+01		1.0000e+00
			-8.1		1.4233e+01		1.0000e+00
			-8.05		1.4198e+01		1.0000e+00
			-8.0		1.4163e+01		1.0000e+00
			-7.95		1.4127e+01		1.0000e+00
			-7.9		1.4090e+01		1.0000e+00
			-7.85		1.4053e+01		1.0000e+00
			-7.8		1.4016e+01		1.0000e+00
			-7.75		1.3979e+01		1.0000e+00
			-7.7		1.3944e+01		1.0000e+00
			-7.65		1.3909e+01		1.0000e+00
			-7.6		1.3875e+01		1.0000e+00
			-7.55		1.3840e+01		1.0000e+00
			-7.5		1.3806e+01		1.0000e+00
			-7.45		1.3772e+01		1.0000e+00
			-7.4		1.3737e+01		1.0000e+00
			-7.35		1.3703e+01		1.0000e+00
			-7.3		1.3667e+01		1.0000e+00
			-7.25		1.3630e+01		1.0000e+00
			-7.2		1.3593e+01		1.0000e+00
			-7.15		1.3557e+01		1.0000e+00
			-7.1		1.3523e+01		1.0000e+00
			-7.05		1.3489e+01		1.0000e+00
			-7.0		1.3455e+01		1.0000e+00
			-6.95		1.3421e+01		1.0000e+00
			-6.9		1.3386e+01		1.0000e+00
			-6.85		1.3351e+01		1.0000e+00
			-6.8		1.3315e+01		1.0000e+00
			-6.75		1.3280e+01		1.0000e+00
			-6.7		1.3247e+01		1.0000e+00
			-6.65		1.3215e+01		1.0000e+00
			-6.6		1.3182e+01		1.0000e+00
			-6.55		1.3149e+01		1.0000e+00
			-6.5		1.3117e+01		1.0000e+00
			-6.45		1.3085e+01		1.0000e+00
			-6.4		1.3053e+01		1.0000e+00
			-6.35		1.3020e+01		1.0000e+00
			-6.3		1.2986e+01		1.0000e+00
			-6.25		1.2952e+01		1.0000e+00
			-6.2		1.2918e+01		1.0000e+00
			-6.15		1.2883e+01		1.0000e+00
			-6.1		1.2851e+01		1.0000e+00
			-6.05		1.2820e+01		1.0000e+00
			-6.0		1.2788e+01		1.0000e+00
			-5.95		1.2756e+01		1.0000e+00
			-5.9		1.2724e+01		1.0000e+00
			-5.85		1.2692e+01		1.0000e+00
			-5.8		1.2660e+01		1.0000e+00
			-5.75		1.2628e+01		1.0000e+00
			-5.7		1.2596e+01		1.0000e+00
			-5.65		1.2563e+01		1.0000e+00
			-5.6		1.2531e+01		1.0000e+00
			-5.55		1.2499e+01		1.0000e+00
			-5.5		1.2468e+01		1.0000e+00
			-5.45		1.2437e+01		1.0000e+00
			-5.4		1.2406e+01		1.0000e+00
			-5.35		1.2375e+01		1.0000e+00
			-5.3		1.2343e+01		1.0000e+00
			-5.25		1.2311e+01		1.0000e+00
			-5.2		1.2278e+01		1.0000e+00
			-5.15		1.2246e+01		1.0000e+00
			-5.1		1.2216e+01		1.0000e+00
			-5.05		1.2185e+01		1.0000e+00
			-5.0		1.2155e+01		1.0000e+00
			-4.95		1.2125e+01		1.0000e+00
			-4.9		1.2093e+01		1.0000e+00
			-4.85		1.2062e+01		1.0000e+00
			-4.8		1.2030e+01		1.0000e+00
			-4.75		1.1998e+01		1.0000e+00
			-4.7		1.1969e+01		1.0000e+00
			-4.65		1.1939e+01		1.0000e+00
			-4.6		1.1909e+01		1.0000e+00
			-4.55		1.1879e+01		1.0000e+00
			-4.5		1.1849e+01		1.0000e+00
			-4.45		1.1820e+01		1.0000e+00
			-4.4		1.1790e+01		1.0000e+00
			-4.35		1.1760e+01		1.0000e+00
			-4.3		1.1728e+01		1.0000e+00
			-4.25		1.1697e+01		1.0000e+00
			-4.2		1.1666e+01		1.0000e+00
			-4.15		1.1634e+01		1.0000e+00
			-4.1		1.1605e+01		1.0000e+00
			-4.05		1.1575e+01		1.0000e+00
			-4.0		1.1546e+01		1.0000e+00
			-3.95		1.1516e+01		1.0000e+00
			-3.9		1.1485e+01		1.0000e+00
			-3.85		1.1454e+01		1.0000e+00
			-3.8		1.1423e+01		1.0000e+00
			-3.75		1.1393e+01		1.0000e+00
			-3.7		1.1364e+01		1.0000e+00
			-3.65		1.1334e+01		1.0000e+00
			-3.6		1.1305e+01		1.0000e+00
			-3.55		1.1276e+01		1.0000e+00
			-3.5		1.1248e+01		1.0000e+00
			-3.45		1.1219e+01		1.0000e+00
			-3.4		1.1190e+01		1.0000e+00
			-3.35		1.1161e+01		1.0000e+00
			-3.3		1.1131e+01		1.0000e+00
			-3.25		1.1100e+01		1.0000e+00
			-3.2		1.1070e+01		1.0000e+00
			-3.15		1.1040e+01		1.0000e+00
			-3.1		1.1011e+01		1.0000e+00
			-3.05		1.0982e+01		1.0000e+00
			-3.0		1.0954e+01		1.0000e+00
			-2.95		1.0925e+01		1.0000e+00
			-2.9		1.0895e+01		1.0000e+00
			-2.85		1.0865e+01		1.0000e+00
			-2.8		1.0836e+01		1.0000e+00
			-2.75		1.0806e+01		1.0000e+00
			-2.7		1.0778e+01		1.0000e+00
			-2.65		1.0751e+01		1.0000e+00
			-2.6		1.0723e+01		1.0000e+00
			-2.55		1.0695e+01		1.0000e+00
			-2.5		1.0668e+01		1.0000e+00
			-2.45		1.0641e+01		1.0000e+00
			-2.4		1.0614e+01		1.0000e+00
			-2.35		1.0586e+01		1.0000e+00
			-2.3		1.0558e+01		1.0000e+00
			-2.25		1.0530e+01		1.0000e+00
			-2.2		1.0501e+01		1.0000e+00
			-2.15		1.0473e+01		1.0000e+00
			-2.1		1.0446e+01		1.0000e+00
			-2.05		1.0420e+01		1.0000e+00
			-2.0		1.0393e+01		1.0000e+00
			-1.95		1.0366e+01		1.0000e+00
			-1.9		1.0339e+01		1.0000e+00
			-1.85		1.0311e+01		1.0000e+00
			-1.8		1.0284e+01		1.0000e+00
			-1.75		1.0256e+01		1.0000e+00
			-1.7		1.0230e+01		1.0000e+00
			-1.65		1.0204e+01		1.0000e+00
			-1.6		1.0178e+01		1.0000e+00
			-1.55		1.0152e+01		1.0000e+00
			-1.5		1.0127e+01		1.0000e+00
			-1.45		1.0101e+01		1.0000e+00
			-1.4		1.0075e+01		1.0000e+00
			-1.35		1.0050e+01		1.0000e+00
			-1.3		1.0023e+01		1.0000e+00
			-1.25		9.9959e+00		1.0000e+00
			-1.2		9.9690e+00		1.0000e+00
			-1.15		9.9421e+00		1.0000e+00
			-1.1		9.9169e+00		1.0000e+00
			-1.05		9.8917e+00		1.0000e+00
			-1.0		9.8665e+00		1.0000e+00
			-0.95		9.8412e+00		1.0000e+00
			-0.9		9.8151e+00		1.0000e+00
			-0.85		9.7890e+00		1.0000e+00
			-0.8		9.7629e+00		1.0000e+00
			-0.75		9.7367e+00		1.0000e+00
			-0.7		9.7120e+00		1.0000e+00
			-0.65		9.6872e+00		1.0000e+00
			-0.6		9.6625e+00		1.0000e+00
			-0.55		9.6377e+00		1.0000e+00
			-0.5		9.6133e+00		1.0000e+00
			-0.45		9.5889e+00		1.0000e+00
			-0.4		9.5645e+00		1.0000e+00
			-0.35		9.5401e+00		1.0000e+00
			-0.3		9.5145e+00		1.0000e+00
			-0.25		9.4890e+00		1.0000e+00
			-0.2		9.4634e+00		1.0000e+00
			-0.15		9.4379e+00		1.0000e+00
			-0.1		9.4137e+00		1.0000e+00
			-0.05		9.3895e+00		1.0000e+00
			0.0		9.3653e+00		1.0000e+00
			0.05		9.3411e+00		1.0000e+00
			0.1		9.3158e+00		1.0000e+00
			0.15		9.2905e+00		1.0000e+00
			0.2		9.2653e+00		1.0000e+00
			0.25		9.2400e+00		1.0000e+00
			0.3		9.2161e+00		1.0000e+00
			0.35		9.1922e+00		1.0000e+00
			0.4		9.1683e+00		1.0000e+00
			0.45		9.1445e+00		1.0000e+00
			0.5		9.1209e+00		1.0000e+00
			0.55		9.0974e+00		1.0000e+00
			0.6		9.0739e+00		1.0000e+00
			0.65		9.0504e+00		1.0000e+00
			0.7		9.0254e+00		1.0000e+00
			0.75		9.0003e+00		1.0000e+00
			0.8		8.9753e+00		1.0000e+00
			0.85		8.9502e+00		1.0000e+00
			0.9		8.9266e+00		1.0000e+00
			0.95		8.9030e+00		1.0000e+00
			1.0		8.8793e+00		1.0000e+00
			1.05		8.8557e+00		1.0000e+00
			1.1		8.8315e+00		1.0000e+00
			1.15		8.8073e+00		1.0000e+00
			1.2		8.7830e+00		1.0000e+00
			1.25		8.7588e+00		1.0000e+00
			1.3		8.7357e+00		1.0000e+00
			1.35		8.7127e+00		1.0000e+00
			1.4		8.6896e+00		1.0000e+00
			1.45		8.6665e+00		1.0000e+00
			1.5		8.6439e+00		1.0000e+00
			1.55		8.6212e+00		1.0000e+00
			1.6		8.5985e+00		1.0000e+00
			1.65		8.5759e+00		1.0000e+00
			1.7		8.5522e+00		1.0000e+00
			1.75		8.5285e+00		1.0000e+00
			1.8		8.5049e+00		1.0000e+00
			1.85		8.4812e+00		1.0000e+00
			1.9		8.4590e+00		1.0000e+00
			1.95		8.4369e+00		1.0000e+00
			2.0		8.4147e+00		1.0000e+00
			2.05		8.3925e+00		1.0000e+00
			2.1		8.3697e+00		1.0000e+00
			2.15		8.3470e+00		1.0000e+00
			2.2		8.3243e+00		1.0000e+00
			2.25		8.3016e+00		1.0000e+00
			2.3		8.2800e+00		1.0000e+00
			2.35		8.2584e+00		1.0000e+00
			2.4		8.2368e+00		1.0000e+00
			2.45		8.2152e+00		1.0000e+00
			2.5		8.1939e+00		1.0000e+00
			2.55		8.1726e+00		1.0000e+00
			2.6		8.1513e+00		1.0000e+00
			2.65		8.1300e+00		1.0000e+00
			2.7		8.1078e+00		1.0000e+00
			2.75		8.0857e+00		1.0000e+00
			2.8		8.0635e+00		1.0000e+00
			2.85		8.0413e+00		1.0000e+00
			2.9		8.0204e+00		1.0000e+00
			2.95		7.9995e+00		1.0000e+00
			3.0		7.9785e+00		1.0000e+00
			3.05		7.9576e+00		1.0000e+00
			3.1		7.9362e+00		1.0000e+00
			3.15		7.9147e+00		1.0000e+00
			3.2		7.8933e+00		1.0000e+00
			3.25		7.8719e+00		1.0000e+00
			3.3		7.8515e+00		1.0000e+00
			3.35		7.8312e+00		1.0000e+00
			3.4		7.8108e+00		1.0000e+00
			3.45		7.7905e+00		1.0000e+00
			3.5		7.7704e+00		1.0000e+00
			3.55		7.7504e+00		1.0000e+00
			3.6		7.7303e+00		1.0000e+00
			3.65		7.7103e+00		1.0000e+00
			3.7		7.6893e+00		1.0000e+00
			3.75		7.6683e+00		1.0000e+00
			3.8		7.6473e+00		1.0000e+00
			3.85		7.6263e+00		1.0000e+00
			3.9		7.6065e+00		1.0000e+00
			3.95		7.5866e+00		1.0000e+00
			4.0		7.5668e+00		1.0000e+00
			4.05		7.5469e+00		1.0000e+00
			4.1		7.5266e+00		1.0000e+00
			4.15		7.5063e+00		1.0000e+00
			4.2		7.4860e+00		1.0000e+00
			4.25		7.4657e+00		1.0000e+00
			4.3		7.4464e+00		1.0000e+00
			4.35		7.4270e+00		1.0000e+00
			4.4		7.4076e+00		1.0000e+00
			4.45		7.3882e+00		1.0000e+00
			4.5		7.3692e+00		1.0000e+00
			4.55		7.3501e+00		1.0000e+00
			4.6		7.3310e+00		1.0000e+00
			4.65		7.3120e+00		1.0000e+00
			4.7		7.2921e+00		1.0000e+00
			4.75		7.2723e+00		1.0000e+00
			4.8		7.2524e+00		1.0000e+00
			4.85		7.2326e+00		1.0000e+00
			4.9		7.2139e+00		1.0000e+00
			4.95		7.1952e+00		1.0000e+00
			5.0		7.1765e+00		1.0000e+00
			5.05		7.1579e+00		1.0000e+00
			5.1		7.1387e+00		1.0000e+00
			5.15		7.1196e+00		1.0000e+00
			5.2		7.1005e+00		1.0000e+00
			5.25		7.0814e+00		1.0000e+00
			5.3		7.0632e+00		1.0000e+00
			5.35		7.0450e+00		1.0000e+00
			5.4		7.0269e+00		1.0000e+00
			5.45		7.0087e+00		1.0000e+00
			5.5		6.9908e+00		1.0000e+00
			5.55		6.9728e+00		1.0000e+00
			5.6		6.9549e+00		1.0000e+00
			5.65		6.9370e+00		1.0000e+00
			5.7		6.9184e+00		1.0000e+00
			5.75		6.8998e+00		1.0000e+00
			5.8		6.8812e+00		1.0000e+00
			5.85		6.8627e+00		1.0000e+00
			5.9		6.8451e+00		1.0000e+00
			5.95		6.8276e+00		1.0000e+00
			6.0		6.8101e+00		1.0000e+00
			6.05		6.7925e+00		1.0000e+00
			6.1		6.7745e+00		1.0000e+00
			6.15		6.7565e+00		1.0000e+00
			6.2		6.7385e+00		1.0000e+00
			6.25		6.7205e+00		1.0000e+00
			6.3		6.7034e+00		1.0000e+00
			6.35		6.6862e+00		1.0000e+00
			6.4		6.6691e+00		1.0000e+00
			6.45		6.6519e+00		1.0000e+00
			6.5		6.6351e+00		1.0000e+00
			6.55		6.6183e+00		1.0000e+00
			6.6		6.6015e+00		1.0000e+00
			6.65		6.5847e+00		1.0000e+00
			6.7		6.5668e+00		1.0000e+00
			6.75		6.5489e+00		1.0000e+00
			6.8		6.5309e+00		1.0000e+00
			6.85		6.5130e+00		1.0000e+00
			6.9		6.4967e+00		1.0000e+00
			6.95		6.4803e+00		1.0000e+00
			7.0		6.4640e+00		1.0000e+00
			7.05		6.4477e+00		1.0000e+00
			7.1		6.4301e+00		1.0000e+00
			7.15		6.4126e+00		1.0000e+00
			7.2		6.3950e+00		1.0000e+00
			7.25		6.3774e+00		1.0000e+00
			7.3		6.3615e+00		1.0000e+00
			7.35		6.3457e+00		1.0000e+00
			7.4		6.3298e+00		1.0000e+00
			7.45		6.3140e+00		1.0000e+00
			7.5		6.2976e+00		1.0000e+00
			7.55		6.2813e+00		1.0000e+00
			7.6		6.2649e+00		1.0000e+00
			7.65		6.2486e+00		1.0000e+00
			7.7		6.2324e+00		1.0000e+00
			7.75		6.2161e+00		1.0000e+00
			7.8		6.1999e+00		1.0000e+00
			7.85		6.1837e+00		1.0000e+00
			7.9		6.1673e+00		1.0000e+00
			7.95		6.1509e+00		1.0000e+00
			8.0		6.1345e+00		1.0000e+00
			8.05		6.1181e+00		1.0000e+00
			8.1		6.1025e+00		1.0000e+00
			8.15		6.0869e+00		1.0000e+00
			8.2		6.0713e+00		1.0000e+00
			8.25		6.0557e+00		1.0000e+00
			8.3		6.0396e+00		1.0000e+00
			8.35		6.0236e+00		1.0000e+00
			8.4		6.0075e+00		1.0000e+00
			8.45		5.9914e+00		1.0000e+00
			8.5		5.9765e+00		1.0000e+00
			8.55		5.9616e+00		1.0000e+00
			8.6		5.9467e+00		1.0000e+00
			8.65		5.9318e+00		1.0000e+00
			8.7		5.9156e+00		1.0000e+00
			8.75		5.8994e+00		1.0000e+00
			8.8		5.8832e+00		1.0000e+00
			8.85		5.8670e+00		1.0000e+00
			8.9		5.8523e+00		1.0000e+00
			8.95		5.8376e+00		1.0000e+00
			9.0		5.8229e+00		1.0000e+00
			9.05		5.8082e+00		1.0000e+00
			9.1		5.7925e+00		1.0000e+00
			9.15		5.7768e+00		1.0000e+00
			9.2		5.7611e+00		1.0000e+00
			9.25		5.7454e+00		1.0000e+00
			9.3		5.7313e+00		1.0000e+00
			9.35		5.7172e+00		1.0000e+00
			9.4		5.7031e+00		1.0000e+00
			9.45		5.6891e+00		1.0000e+00
			9.5		5.6741e+00		1.0000e+00
			9.55		5.6592e+00		1.0000e+00
			9.6		5.6442e+00		1.0000e+00
			9.65		5.6293e+00		1.0000e+00
			9.7		5.6149e+00		1.0000e+00
			9.75		5.6006e+00		1.0000e+00
			9.8		5.5863e+00		1.0000e+00
			9.85		5.5720e+00		1.0000e+00
			9.9		5.5574e+00		1.0000e+00
			9.95		5.5429e+00		1.0000e+00
			10.0		5.5283e+00		1.0000e+00
			10.05		5.5138e+00		1.0000e+00
			10.1		5.5000e+00		1.0000e+00
			10.15		5.4861e+00		1.0000e+00
			10.2		5.4723e+00		1.0000e+00
			10.25		5.4585e+00		1.0000e+00
			10.3		5.4442e+00		1.0000e+00
			10.35		5.4299e+00		1.0000e+00
			10.4		5.4156e+00		1.0000e+00
			10.45		5.4013e+00		1.0000e+00
			10.5		5.3880e+00		1.0000e+00
			10.55		5.3747e+00		1.0000e+00
			10.6		5.3614e+00		1.0000e+00
			10.65		5.3480e+00		1.0000e+00
			10.7		5.3338e+00		1.0000e+00
			10.75		5.3195e+00		1.0000e+00
			10.8		5.3053e+00		1.0000e+00
			10.85		5.2910e+00		1.0000e+00
			10.9		5.2780e+00		1.0000e+00
			10.95		5.2650e+00		1.0000e+00
			11.0		5.2520e+00		1.0000e+00
			11.05		5.2390e+00		1.0000e+00
			11.1		5.2250e+00		1.0000e+00
			11.15		5.2110e+00		1.0000e+00
			11.2		5.1971e+00		1.0000e+00
			11.25		5.1831e+00		1.0000e+00
			11.3		5.1704e+00		1.0000e+00
			11.35		5.1577e+00		1.0000e+00
			11.4		5.1450e+00		1.0000e+00
			11.45		5.1323e+00		1.0000e+00
			11.5		5.1193e+00		1.0000e+00
			11.55		5.1063e+00		1.0000e+00
			11.6		5.0933e+00		1.0000e+00
			11.65		5.0803e+00		1.0000e+00
			11.7		5.0675e+00		1.0000e+00
			11.75		5.0546e+00		1.0000e+00
			11.8		5.0418e+00		1.0000e+00
			11.85		5.0289e+00		1.0000e+00
			11.9		5.0159e+00		1.0000e+00
			11.95		5.0030e+00		1.0000e+00
			12.0		4.9900e+00		1.0000e+00
			12.05		4.9770e+00		1.0000e+00
			12.1		4.9645e+00		1.0000e+00
			12.15		4.9520e+00		1.0000e+00
			12.2		4.9396e+00		1.0000e+00
			12.25		4.9271e+00		1.0000e+00
			12.3		4.9144e+00		1.0000e+00
			12.35		4.9018e+00		1.0000e+00
			12.4		4.8891e+00		1.0000e+00
			12.45		4.8764e+00		1.0000e+00
			12.5		4.8645e+00		1.0000e+00
			12.55		4.8526e+00		1.0000e+00
			12.6		4.8408e+00		1.0000e+00
			12.65		4.8289e+00		1.0000e+00
			12.7		4.8162e+00		1.0000e+00
			12.75		4.8035e+00		1.0000e+00
			12.8		4.7909e+00		1.0000e+00
			12.85		4.7782e+00		1.0000e+00
			12.9		4.7664e+00		1.0000e+00
			12.95		4.7546e+00		1.0000e+00
			13.0		4.7427e+00		1.0000e+00
			13.05		4.7309e+00		1.0000e+00
			13.1		4.7186e+00		1.0000e+00
			13.15		4.7062e+00		1.0000e+00
			13.2		4.6939e+00		1.0000e+00
			13.25		4.6816e+00		1.0000e+00
			13.3		4.6700e+00		1.0000e+00
			13.35		4.6585e+00		1.0000e+00
			13.4		4.6470e+00		1.0000e+00
			13.45		4.6355e+00		1.0000e+00
			13.5		4.6238e+00		1.0000e+00
			13.55		4.6120e+00		1.0000e+00
			13.6		4.6003e+00		1.0000e+00
			13.65		4.5886e+00		1.0000e+00
			13.7		4.5768e+00		1.0000e+00
			13.75		4.5651e+00		1.0000e+00
			13.8		4.5533e+00		1.0000e+00
			13.85		4.5415e+00		1.0000e+00
			13.9		4.5300e+00		1.0000e+00
			13.95		4.5186e+00		1.0000e+00
			14.0		4.5072e+00		1.0000e+00
