BEGIN_SCAN_DATA
	FORMAT=CC-Export V1.9                  
	FILE_CREATION_DATE=
	LAST_MODIFIED=11-Jan-2023 11:56:56
	BEGIN_SCAN  1
		TASK_NAME=RayStation Phantom Profiles & PDDs
		PROGRAM=RayStation
		COMMENT=RayStation Script Export
		MEAS_DATE=11-Jan-2023 11:56:56
		LINAC=RayStation
		MODALITY=X
		ISOCENTER=1000.00
		INPLANE_AXIS=Y
		CROSSPLANE_AXIS=X
		DEPTH_AXIS=Z
		INPLANE_AXIS_DIR=GUN_TARGET
		CROSSPLANE_AXIS_DIR=LEFT_RIGHT
		DEPTH_AXIS_DIR=UP_DOWN
		ENERGY=6.3
		NOMINAL_DMAX=20.00
		SSD=1000.0
		SCD=1000.00
		WEDGE_ANGLE=0.00
		FIELD_INPLANE=200.0
		FIELD_CROSSPLANE=200.0
		FIELD_TYPE=IRREGULAR
		GANTRY=0.00
		GANTRY_UPRIGHT_POSITION=0
		GANTRY_ROTATION=CW
		COLL_ANGLE=0.00
		REF_FIELD_DEPTH=50.00
		REF_FIELD_DEFINED=ISOCENTER
		FIELD_INPLANE=200.0
		FIELD_CROSSPLANE=200.0
		SCAN_CURVETYPE=CROSSPLANE_PROFILE
		SCAN_DEPTH=20.0
		SCAN_OFFAXIS_INPLANE=0.00
		SCAN_OFFAXIS_CROSSPLANE=0.00
		SCAN_ANGLE=0.00
		SCAN_DIAGONAL=NOT_DIAGONAL
		SCAN_DIRECTION=NEGATIVE
		MEAS_MEDIUM=WATER
		MEAS_UNIT=cGy
		INCLINATION_ANGLE=0.00
		PRESSURE=1013.20
		TEMPERATURE=20.00
		NORM_TEMPERATURE=20.00
		CORRECTION_FACTOR=1.0000;
		BEGIN_DATA
			-30.05		0.0000e+00		1.0000e+00
			-30.0		0.0000e+00		1.0000e+00
			-29.95		0.0000e+00		1.0000e+00
			-29.9		0.0000e+00		1.0000e+00
			-29.85		0.0000e+00		1.0000e+00
			-29.8		0.0000e+00		1.0000e+00
			-29.75		0.0000e+00		1.0000e+00
			-29.7		0.0000e+00		1.0000e+00
			-29.65		0.0000e+00		1.0000e+00
			-29.6		0.0000e+00		1.0000e+00
			-29.55		0.0000e+00		1.0000e+00
			-29.5		0.0000e+00		1.0000e+00
			-29.45		0.0000e+00		1.0000e+00
			-29.4		0.0000e+00		1.0000e+00
			-29.35		0.0000e+00		1.0000e+00
			-29.3		0.0000e+00		1.0000e+00
			-29.25		0.0000e+00		1.0000e+00
			-29.2		0.0000e+00		1.0000e+00
			-29.15		0.0000e+00		1.0000e+00
			-29.1		0.0000e+00		1.0000e+00
			-29.05		0.0000e+00		1.0000e+00
			-29.0		0.0000e+00		1.0000e+00
			-28.95		0.0000e+00		1.0000e+00
			-28.9		0.0000e+00		1.0000e+00
			-28.85		0.0000e+00		1.0000e+00
			-28.8		0.0000e+00		1.0000e+00
			-28.75		3.5113e-09		1.0000e+00
			-28.7		3.8169e-05		1.0000e+00
			-28.65		7.6335e-05		1.0000e+00
			-28.6		1.1450e-04		1.0000e+00
			-28.55		1.5267e-04		1.0000e+00
			-28.5		2.4106e-04		1.0000e+00
			-28.45		3.2944e-04		1.0000e+00
			-28.4		4.1782e-04		1.0000e+00
			-28.35		5.0620e-04		1.0000e+00
			-28.3		5.1920e-04		1.0000e+00
			-28.25		5.3221e-04		1.0000e+00
			-28.2		5.4521e-04		1.0000e+00
			-28.15		5.5821e-04		1.0000e+00
			-28.1		5.6758e-04		1.0000e+00
			-28.05		5.7695e-04		1.0000e+00
			-28.0		5.8631e-04		1.0000e+00
			-27.95		5.9568e-04		1.0000e+00
			-27.9		6.1161e-04		1.0000e+00
			-27.85		6.2755e-04		1.0000e+00
			-27.8		6.4348e-04		1.0000e+00
			-27.75		6.5941e-04		1.0000e+00
			-27.7		6.7625e-04		1.0000e+00
			-27.65		6.9310e-04		1.0000e+00
			-27.6		7.0994e-04		1.0000e+00
			-27.55		7.2679e-04		1.0000e+00
			-27.5		7.3924e-04		1.0000e+00
			-27.45		7.5169e-04		1.0000e+00
			-27.4		7.6413e-04		1.0000e+00
			-27.35		7.7658e-04		1.0000e+00
			-27.3		7.9921e-04		1.0000e+00
			-27.25		8.2183e-04		1.0000e+00
			-27.2		8.4446e-04		1.0000e+00
			-27.15		8.6709e-04		1.0000e+00
			-27.1		8.8907e-04		1.0000e+00
			-27.05		9.1106e-04		1.0000e+00
			-27.0		9.3305e-04		1.0000e+00
			-26.95		9.5504e-04		1.0000e+00
			-26.9		9.7207e-04		1.0000e+00
			-26.85		9.8910e-04		1.0000e+00
			-26.8		1.0061e-03		1.0000e+00
			-26.75		1.0232e-03		1.0000e+00
			-26.7		1.0630e-03		1.0000e+00
			-26.65		1.1029e-03		1.0000e+00
			-26.6		1.1427e-03		1.0000e+00
			-26.55		1.1826e-03		1.0000e+00
			-26.5		1.2388e-03		1.0000e+00
			-26.45		1.2951e-03		1.0000e+00
			-26.4		1.3513e-03		1.0000e+00
			-26.35		1.4075e-03		1.0000e+00
			-26.3		1.4650e-03		1.0000e+00
			-26.25		1.5225e-03		1.0000e+00
			-26.2		1.5800e-03		1.0000e+00
			-26.15		1.6374e-03		1.0000e+00
			-26.1		1.7171e-03		1.0000e+00
			-26.05		1.7968e-03		1.0000e+00
			-26.0		1.8765e-03		1.0000e+00
			-25.95		1.9562e-03		1.0000e+00
			-25.9		2.0248e-03		1.0000e+00
			-25.85		2.0935e-03		1.0000e+00
			-25.8		2.1621e-03		1.0000e+00
			-25.75		2.2308e-03		1.0000e+00
			-25.7		2.3025e-03		1.0000e+00
			-25.65		2.3743e-03		1.0000e+00
			-25.6		2.4461e-03		1.0000e+00
			-25.55		2.5179e-03		1.0000e+00
			-25.5		2.6331e-03		1.0000e+00
			-25.45		2.7483e-03		1.0000e+00
			-25.4		2.8635e-03		1.0000e+00
			-25.35		2.9786e-03		1.0000e+00
			-25.3		3.0766e-03		1.0000e+00
			-25.25		3.1746e-03		1.0000e+00
			-25.2		3.2726e-03		1.0000e+00
			-25.15		3.3706e-03		1.0000e+00
			-25.1		3.4738e-03		1.0000e+00
			-25.05		3.5770e-03		1.0000e+00
			-25.0		3.6802e-03		1.0000e+00
			-24.95		3.7835e-03		1.0000e+00
			-24.9		3.9338e-03		1.0000e+00
			-24.85		4.0841e-03		1.0000e+00
			-24.8		4.2345e-03		1.0000e+00
			-24.75		4.3848e-03		1.0000e+00
			-24.7		4.4957e-03		1.0000e+00
			-24.65		4.6066e-03		1.0000e+00
			-24.6		4.7174e-03		1.0000e+00
			-24.55		4.8283e-03		1.0000e+00
			-24.5		4.9295e-03		1.0000e+00
			-24.45		5.0307e-03		1.0000e+00
			-24.4		5.1318e-03		1.0000e+00
			-24.35		5.2330e-03		1.0000e+00
			-24.3		5.3814e-03		1.0000e+00
			-24.25		5.5298e-03		1.0000e+00
			-24.2		5.6782e-03		1.0000e+00
			-24.15		5.8266e-03		1.0000e+00
			-24.1		5.9256e-03		1.0000e+00
			-24.05		6.0246e-03		1.0000e+00
			-24.0		6.1235e-03		1.0000e+00
			-23.95		6.2225e-03		1.0000e+00
			-23.9		6.3674e-03		1.0000e+00
			-23.85		6.5122e-03		1.0000e+00
			-23.8		6.6570e-03		1.0000e+00
			-23.75		6.8019e-03		1.0000e+00
			-23.7		7.0182e-03		1.0000e+00
			-23.65		7.2345e-03		1.0000e+00
			-23.6		7.4508e-03		1.0000e+00
			-23.55		7.6671e-03		1.0000e+00
			-23.5		7.8067e-03		1.0000e+00
			-23.45		7.9464e-03		1.0000e+00
			-23.4		8.0861e-03		1.0000e+00
			-23.35		8.2258e-03		1.0000e+00
			-23.3		8.4600e-03		1.0000e+00
			-23.25		8.6943e-03		1.0000e+00
			-23.2		8.9285e-03		1.0000e+00
			-23.15		9.1628e-03		1.0000e+00
			-23.1		9.4684e-03		1.0000e+00
			-23.05		9.7740e-03		1.0000e+00
			-23.0		1.0080e-02		1.0000e+00
			-22.95		1.0385e-02		1.0000e+00
			-22.9		1.0588e-02		1.0000e+00
			-22.85		1.0792e-02		1.0000e+00
			-22.8		1.0995e-02		1.0000e+00
			-22.75		1.1198e-02		1.0000e+00
			-22.7		1.1594e-02		1.0000e+00
			-22.65		1.1990e-02		1.0000e+00
			-22.6		1.2386e-02		1.0000e+00
			-22.55		1.2782e-02		1.0000e+00
			-22.5		1.3216e-02		1.0000e+00
			-22.45		1.3650e-02		1.0000e+00
			-22.4		1.4084e-02		1.0000e+00
			-22.35		1.4518e-02		1.0000e+00
			-22.3		1.4835e-02		1.0000e+00
			-22.25		1.5152e-02		1.0000e+00
			-22.2		1.5469e-02		1.0000e+00
			-22.15		1.5786e-02		1.0000e+00
			-22.1		1.6442e-02		1.0000e+00
			-22.05		1.7097e-02		1.0000e+00
			-22.0		1.7752e-02		1.0000e+00
			-21.95		1.8408e-02		1.0000e+00
			-21.9		1.9026e-02		1.0000e+00
			-21.85		1.9644e-02		1.0000e+00
			-21.8		2.0262e-02		1.0000e+00
			-21.75		2.0880e-02		1.0000e+00
			-21.7		2.1376e-02		1.0000e+00
			-21.65		2.1871e-02		1.0000e+00
			-21.6		2.2367e-02		1.0000e+00
			-21.55		2.2862e-02		1.0000e+00
			-21.5		2.3919e-02		1.0000e+00
			-21.45		2.4976e-02		1.0000e+00
			-21.4		2.6032e-02		1.0000e+00
			-21.35		2.7089e-02		1.0000e+00
			-21.3		2.7969e-02		1.0000e+00
			-21.25		2.8848e-02		1.0000e+00
			-21.2		2.9728e-02		1.0000e+00
			-21.15		3.0607e-02		1.0000e+00
			-21.1		3.1382e-02		1.0000e+00
			-21.05		3.2157e-02		1.0000e+00
			-21.0		3.2932e-02		1.0000e+00
			-20.95		3.3708e-02		1.0000e+00
			-20.9		3.5381e-02		1.0000e+00
			-20.85		3.7055e-02		1.0000e+00
			-20.8		3.8729e-02		1.0000e+00
			-20.75		4.0411e-02		1.0000e+00
			-20.7		1.3073e-01		1.0000e+00
			-20.65		2.2105e-01		1.0000e+00
			-20.6		3.1136e-01		1.0000e+00
			-20.55		4.0167e-01		1.0000e+00
			-20.5		4.0445e-01		1.0000e+00
			-20.45		4.0723e-01		1.0000e+00
			-20.4		4.1001e-01		1.0000e+00
			-20.35		4.1279e-01		1.0000e+00
			-20.3		4.1558e-01		1.0000e+00
			-20.25		4.1837e-01		1.0000e+00
			-20.2		4.2116e-01		1.0000e+00
			-20.15		4.2396e-01		1.0000e+00
			-20.1		4.2673e-01		1.0000e+00
			-20.05		4.2950e-01		1.0000e+00
			-20.0		4.3227e-01		1.0000e+00
			-19.95		4.3505e-01		1.0000e+00
			-19.9		4.3784e-01		1.0000e+00
			-19.85		4.4063e-01		1.0000e+00
			-19.8		4.4342e-01		1.0000e+00
			-19.75		4.4622e-01		1.0000e+00
			-19.7		4.4950e-01		1.0000e+00
			-19.65		4.5279e-01		1.0000e+00
			-19.6		4.5607e-01		1.0000e+00
			-19.55		4.5935e-01		1.0000e+00
			-19.5		4.6261e-01		1.0000e+00
			-19.45		4.6586e-01		1.0000e+00
			-19.4		4.6911e-01		1.0000e+00
			-19.35		4.7237e-01		1.0000e+00
			-19.3		4.7566e-01		1.0000e+00
			-19.25		4.7895e-01		1.0000e+00
			-19.2		4.8224e-01		1.0000e+00
			-19.15		4.8553e-01		1.0000e+00
			-19.1		4.8885e-01		1.0000e+00
			-19.05		4.9217e-01		1.0000e+00
			-19.0		4.9549e-01		1.0000e+00
			-18.95		4.9881e-01		1.0000e+00
			-18.9		5.0258e-01		1.0000e+00
			-18.85		5.0636e-01		1.0000e+00
			-18.8		5.1013e-01		1.0000e+00
			-18.75		5.1391e-01		1.0000e+00
			-18.7		5.1778e-01		1.0000e+00
			-18.65		5.2165e-01		1.0000e+00
			-18.6		5.2552e-01		1.0000e+00
			-18.55		5.2939e-01		1.0000e+00
			-18.5		5.3325e-01		1.0000e+00
			-18.45		5.3712e-01		1.0000e+00
			-18.4		5.4098e-01		1.0000e+00
			-18.35		5.4485e-01		1.0000e+00
			-18.3		5.4863e-01		1.0000e+00
			-18.25		5.5242e-01		1.0000e+00
			-18.2		5.5621e-01		1.0000e+00
			-18.15		5.6000e-01		1.0000e+00
			-18.1		5.6509e-01		1.0000e+00
			-18.05		5.7018e-01		1.0000e+00
			-18.0		5.7528e-01		1.0000e+00
			-17.95		5.8037e-01		1.0000e+00
			-17.9		5.8547e-01		1.0000e+00
			-17.85		5.9057e-01		1.0000e+00
			-17.8		5.9567e-01		1.0000e+00
			-17.75		6.0077e-01		1.0000e+00
			-17.7		6.0580e-01		1.0000e+00
			-17.65		6.1082e-01		1.0000e+00
			-17.6		6.1585e-01		1.0000e+00
			-17.55		6.2088e-01		1.0000e+00
			-17.5		6.2599e-01		1.0000e+00
			-17.45		6.3109e-01		1.0000e+00
			-17.4		6.3620e-01		1.0000e+00
			-17.35		6.4130e-01		1.0000e+00
			-17.3		6.4816e-01		1.0000e+00
			-17.25		6.5502e-01		1.0000e+00
			-17.2		6.6188e-01		1.0000e+00
			-17.15		6.6873e-01		1.0000e+00
			-17.1		6.7545e-01		1.0000e+00
			-17.05		6.8216e-01		1.0000e+00
			-17.0		6.8887e-01		1.0000e+00
			-16.95		6.9558e-01		1.0000e+00
			-16.9		7.0250e-01		1.0000e+00
			-16.85		7.0941e-01		1.0000e+00
			-16.8		7.1633e-01		1.0000e+00
			-16.75		7.2324e-01		1.0000e+00
			-16.7		7.3012e-01		1.0000e+00
			-16.65		7.3699e-01		1.0000e+00
			-16.6		7.4387e-01		1.0000e+00
			-16.55		7.5074e-01		1.0000e+00
			-16.5		7.5912e-01		1.0000e+00
			-16.45		7.6749e-01		1.0000e+00
			-16.4		7.7587e-01		1.0000e+00
			-16.35		7.8424e-01		1.0000e+00
			-16.3		7.9283e-01		1.0000e+00
			-16.25		8.0141e-01		1.0000e+00
			-16.2		8.0999e-01		1.0000e+00
			-16.15		8.1857e-01		1.0000e+00
			-16.1		8.2704e-01		1.0000e+00
			-16.05		8.3552e-01		1.0000e+00
			-16.0		8.4399e-01		1.0000e+00
			-15.95		8.5246e-01		1.0000e+00
			-15.9		8.6103e-01		1.0000e+00
			-15.85		8.6959e-01		1.0000e+00
			-15.8		8.7816e-01		1.0000e+00
			-15.75		8.8673e-01		1.0000e+00
			-15.7		9.1340e-01		1.0000e+00
			-15.65		9.4008e-01		1.0000e+00
			-15.6		9.6675e-01		1.0000e+00
			-15.55		9.9343e-01		1.0000e+00
			-15.5		1.0201e+00		1.0000e+00
			-15.45		1.0467e+00		1.0000e+00
			-15.4		1.0733e+00		1.0000e+00
			-15.35		1.0999e+00		1.0000e+00
			-15.3		1.1266e+00		1.0000e+00
			-15.25		1.1533e+00		1.0000e+00
			-15.2		1.1800e+00		1.0000e+00
			-15.15		1.2067e+00		1.0000e+00
			-15.1		1.2336e+00		1.0000e+00
			-15.05		1.2605e+00		1.0000e+00
			-15.0		1.2874e+00		1.0000e+00
			-14.95		1.3143e+00		1.0000e+00
			-14.9		1.3325e+00		1.0000e+00
			-14.85		1.3507e+00		1.0000e+00
			-14.8		1.3689e+00		1.0000e+00
			-14.75		1.3872e+00		1.0000e+00
			-14.7		1.4055e+00		1.0000e+00
			-14.65		1.4238e+00		1.0000e+00
			-14.6		1.4421e+00		1.0000e+00
			-14.55		1.4605e+00		1.0000e+00
			-14.5		1.4790e+00		1.0000e+00
			-14.45		1.4975e+00		1.0000e+00
			-14.4		1.5160e+00		1.0000e+00
			-14.35		1.5345e+00		1.0000e+00
			-14.3		1.5527e+00		1.0000e+00
			-14.25		1.5710e+00		1.0000e+00
			-14.2		1.5892e+00		1.0000e+00
			-14.15		1.6074e+00		1.0000e+00
			-14.1		1.6293e+00		1.0000e+00
			-14.05		1.6512e+00		1.0000e+00
			-14.0		1.6731e+00		1.0000e+00
			-13.95		1.6949e+00		1.0000e+00
			-13.9		1.7168e+00		1.0000e+00
			-13.85		1.7386e+00		1.0000e+00
			-13.8		1.7605e+00		1.0000e+00
			-13.75		1.7823e+00		1.0000e+00
			-13.7		1.8039e+00		1.0000e+00
			-13.65		1.8255e+00		1.0000e+00
			-13.6		1.8471e+00		1.0000e+00
			-13.55		1.8687e+00		1.0000e+00
			-13.5		1.8906e+00		1.0000e+00
			-13.45		1.9125e+00		1.0000e+00
			-13.4		1.9344e+00		1.0000e+00
			-13.35		1.9563e+00		1.0000e+00
			-13.3		1.9816e+00		1.0000e+00
			-13.25		2.0070e+00		1.0000e+00
			-13.2		2.0323e+00		1.0000e+00
			-13.15		2.0576e+00		1.0000e+00
			-13.1		2.0824e+00		1.0000e+00
			-13.05		2.1072e+00		1.0000e+00
			-13.0		2.1320e+00		1.0000e+00
			-12.95		2.1568e+00		1.0000e+00
			-12.9		2.1820e+00		1.0000e+00
			-12.85		2.2072e+00		1.0000e+00
			-12.8		2.2324e+00		1.0000e+00
			-12.75		2.2576e+00		1.0000e+00
			-12.7		2.2829e+00		1.0000e+00
			-12.65		2.3082e+00		1.0000e+00
			-12.6		2.3335e+00		1.0000e+00
			-12.55		2.3588e+00		1.0000e+00
			-12.5		2.3891e+00		1.0000e+00
			-12.45		2.4195e+00		1.0000e+00
			-12.4		2.4498e+00		1.0000e+00
			-12.35		2.4802e+00		1.0000e+00
			-12.3		2.5108e+00		1.0000e+00
			-12.25		2.5414e+00		1.0000e+00
			-12.2		2.5720e+00		1.0000e+00
			-12.15		2.6027e+00		1.0000e+00
			-12.1		2.6334e+00		1.0000e+00
			-12.05		2.6641e+00		1.0000e+00
			-12.0		2.6948e+00		1.0000e+00
			-11.95		2.7255e+00		1.0000e+00
			-11.9		2.7558e+00		1.0000e+00
			-11.85		2.7861e+00		1.0000e+00
			-11.8		2.8164e+00		1.0000e+00
			-11.75		2.8467e+00		1.0000e+00
			-11.7		2.8961e+00		1.0000e+00
			-11.65		2.9456e+00		1.0000e+00
			-11.6		2.9950e+00		1.0000e+00
			-11.55		3.0445e+00		1.0000e+00
			-11.5		3.0941e+00		1.0000e+00
			-11.45		3.1438e+00		1.0000e+00
			-11.4		3.1935e+00		1.0000e+00
			-11.35		3.2432e+00		1.0000e+00
			-11.3		3.2931e+00		1.0000e+00
			-11.25		3.3430e+00		1.0000e+00
			-11.2		3.3929e+00		1.0000e+00
			-11.15		3.4428e+00		1.0000e+00
			-11.1		3.4932e+00		1.0000e+00
			-11.05		3.5436e+00		1.0000e+00
			-11.0		3.5940e+00		1.0000e+00
			-10.95		3.6444e+00		1.0000e+00
			-10.9		3.8793e+00		1.0000e+00
			-10.85		4.1141e+00		1.0000e+00
			-10.8		4.3489e+00		1.0000e+00
			-10.75		4.5837e+00		1.0000e+00
			-10.7		4.8153e+00		1.0000e+00
			-10.65		5.0470e+00		1.0000e+00
			-10.6		5.2786e+00		1.0000e+00
			-10.55		5.5104e+00		1.0000e+00
			-10.5		7.2306e+00		1.0000e+00
			-10.45		8.9507e+00		1.0000e+00
			-10.4		1.0671e+01		1.0000e+00
			-10.35		1.2391e+01		1.0000e+00
			-10.3		1.6058e+01		1.0000e+00
			-10.25		1.9725e+01		1.0000e+00
			-10.2		2.3392e+01		1.0000e+00
			-10.15		2.7058e+01		1.0000e+00
			-10.1		2.8579e+01		1.0000e+00
			-10.05		3.0101e+01		1.0000e+00
			-10.0		3.1622e+01		1.0000e+00
			-9.95		3.3143e+01		1.0000e+00
			-9.9		3.3580e+01		1.0000e+00
			-9.85		3.4016e+01		1.0000e+00
			-9.8		3.4453e+01		1.0000e+00
			-9.75		3.4889e+01		1.0000e+00
			-9.7		3.5054e+01		1.0000e+00
			-9.65		3.5219e+01		1.0000e+00
			-9.6		3.5383e+01		1.0000e+00
			-9.55		3.5548e+01		1.0000e+00
			-9.5		3.5629e+01		1.0000e+00
			-9.45		3.5711e+01		1.0000e+00
			-9.4		3.5792e+01		1.0000e+00
			-9.35		3.5874e+01		1.0000e+00
			-9.3		3.5921e+01		1.0000e+00
			-9.25		3.5968e+01		1.0000e+00
			-9.2		3.6015e+01		1.0000e+00
			-9.15		3.6062e+01		1.0000e+00
			-9.1		3.6091e+01		1.0000e+00
			-9.05		3.6120e+01		1.0000e+00
			-9.0		3.6149e+01		1.0000e+00
			-8.95		3.6178e+01		1.0000e+00
			-8.9		3.6203e+01		1.0000e+00
			-8.85		3.6227e+01		1.0000e+00
			-8.8		3.6252e+01		1.0000e+00
			-8.75		3.6277e+01		1.0000e+00
			-8.7		3.6296e+01		1.0000e+00
			-8.65		3.6315e+01		1.0000e+00
			-8.6		3.6334e+01		1.0000e+00
			-8.55		3.6353e+01		1.0000e+00
			-8.5		3.6366e+01		1.0000e+00
			-8.45		3.6380e+01		1.0000e+00
			-8.4		3.6393e+01		1.0000e+00
			-8.35		3.6406e+01		1.0000e+00
			-8.3		3.6419e+01		1.0000e+00
			-8.25		3.6431e+01		1.0000e+00
			-8.2		3.6444e+01		1.0000e+00
			-8.15		3.6456e+01		1.0000e+00
			-8.1		3.6468e+01		1.0000e+00
			-8.05		3.6480e+01		1.0000e+00
			-8.0		3.6492e+01		1.0000e+00
			-7.95		3.6504e+01		1.0000e+00
			-7.9		3.6516e+01		1.0000e+00
			-7.85		3.6527e+01		1.0000e+00
			-7.8		3.6539e+01		1.0000e+00
			-7.75		3.6550e+01		1.0000e+00
			-7.7		3.6558e+01		1.0000e+00
			-7.65		3.6565e+01		1.0000e+00
			-7.6		3.6573e+01		1.0000e+00
			-7.55		3.6581e+01		1.0000e+00
			-7.5		3.6593e+01		1.0000e+00
			-7.45		3.6605e+01		1.0000e+00
			-7.4		3.6617e+01		1.0000e+00
			-7.35		3.6629e+01		1.0000e+00
			-7.3		3.6631e+01		1.0000e+00
			-7.25		3.6632e+01		1.0000e+00
			-7.2		3.6633e+01		1.0000e+00
			-7.15		3.6635e+01		1.0000e+00
			-7.1		3.6648e+01		1.0000e+00
			-7.05		3.6661e+01		1.0000e+00
			-7.0		3.6675e+01		1.0000e+00
			-6.95		3.6688e+01		1.0000e+00
			-6.9		3.6691e+01		1.0000e+00
			-6.85		3.6694e+01		1.0000e+00
			-6.8		3.6697e+01		1.0000e+00
			-6.75		3.6700e+01		1.0000e+00
			-6.7		3.6707e+01		1.0000e+00
			-6.65		3.6715e+01		1.0000e+00
			-6.6		3.6722e+01		1.0000e+00
			-6.55		3.6730e+01		1.0000e+00
			-6.5		3.6734e+01		1.0000e+00
			-6.45		3.6738e+01		1.0000e+00
			-6.4		3.6742e+01		1.0000e+00
			-6.35		3.6746e+01		1.0000e+00
			-6.3		3.6756e+01		1.0000e+00
			-6.25		3.6766e+01		1.0000e+00
			-6.2		3.6776e+01		1.0000e+00
			-6.15		3.6786e+01		1.0000e+00
			-6.1		3.6786e+01		1.0000e+00
			-6.05		3.6787e+01		1.0000e+00
			-6.0		3.6788e+01		1.0000e+00
			-5.95		3.6789e+01		1.0000e+00
			-5.9		3.6798e+01		1.0000e+00
			-5.85		3.6806e+01		1.0000e+00
			-5.8		3.6815e+01		1.0000e+00
			-5.75		3.6824e+01		1.0000e+00
			-5.7		3.6823e+01		1.0000e+00
			-5.65		3.6822e+01		1.0000e+00
			-5.6		3.6821e+01		1.0000e+00
			-5.55		3.6820e+01		1.0000e+00
			-5.5		3.6825e+01		1.0000e+00
			-5.45		3.6830e+01		1.0000e+00
			-5.4		3.6835e+01		1.0000e+00
			-5.35		3.6840e+01		1.0000e+00
			-5.3		3.6841e+01		1.0000e+00
			-5.25		3.6842e+01		1.0000e+00
			-5.2		3.6844e+01		1.0000e+00
			-5.15		3.6845e+01		1.0000e+00
			-5.1		3.6847e+01		1.0000e+00
			-5.05		3.6850e+01		1.0000e+00
			-5.0		3.6852e+01		1.0000e+00
			-4.95		3.6855e+01		1.0000e+00
			-4.9		3.6851e+01		1.0000e+00
			-4.85		3.6847e+01		1.0000e+00
			-4.8		3.6843e+01		1.0000e+00
			-4.75		3.6838e+01		1.0000e+00
			-4.7		3.6841e+01		1.0000e+00
			-4.65		3.6843e+01		1.0000e+00
			-4.6		3.6845e+01		1.0000e+00
			-4.55		3.6847e+01		1.0000e+00
			-4.5		3.6851e+01		1.0000e+00
			-4.45		3.6855e+01		1.0000e+00
			-4.4		3.6859e+01		1.0000e+00
			-4.35		3.6863e+01		1.0000e+00
			-4.3		3.6857e+01		1.0000e+00
			-4.25		3.6851e+01		1.0000e+00
			-4.2		3.6846e+01		1.0000e+00
			-4.15		3.6840e+01		1.0000e+00
			-4.1		3.6842e+01		1.0000e+00
			-4.05		3.6845e+01		1.0000e+00
			-4.0		3.6847e+01		1.0000e+00
			-3.95		3.6850e+01		1.0000e+00
			-3.9		3.6844e+01		1.0000e+00
			-3.85		3.6839e+01		1.0000e+00
			-3.8		3.6833e+01		1.0000e+00
			-3.75		3.6827e+01		1.0000e+00
			-3.7		3.6826e+01		1.0000e+00
			-3.65		3.6825e+01		1.0000e+00
			-3.6		3.6823e+01		1.0000e+00
			-3.55		3.6822e+01		1.0000e+00
			-3.5		3.6824e+01		1.0000e+00
			-3.45		3.6825e+01		1.0000e+00
			-3.4		3.6827e+01		1.0000e+00
			-3.35		3.6828e+01		1.0000e+00
			-3.3		3.6826e+01		1.0000e+00
			-3.25		3.6825e+01		1.0000e+00
			-3.2		3.6823e+01		1.0000e+00
			-3.15		3.6822e+01		1.0000e+00
			-3.1		3.6813e+01		1.0000e+00
			-3.05		3.6804e+01		1.0000e+00
			-3.0		3.6796e+01		1.0000e+00
			-2.95		3.6787e+01		1.0000e+00
			-2.9		3.6786e+01		1.0000e+00
			-2.85		3.6784e+01		1.0000e+00
			-2.8		3.6783e+01		1.0000e+00
			-2.75		3.6782e+01		1.0000e+00
			-2.7		3.6779e+01		1.0000e+00
			-2.65		3.6777e+01		1.0000e+00
			-2.6		3.6774e+01		1.0000e+00
			-2.55		3.6771e+01		1.0000e+00
			-2.5		3.6763e+01		1.0000e+00
			-2.45		3.6756e+01		1.0000e+00
			-2.4		3.6748e+01		1.0000e+00
			-2.35		3.6740e+01		1.0000e+00
			-2.3		3.6737e+01		1.0000e+00
			-2.25		3.6735e+01		1.0000e+00
			-2.2		3.6732e+01		1.0000e+00
			-2.15		3.6729e+01		1.0000e+00
			-2.1		3.6726e+01		1.0000e+00
			-2.05		3.6722e+01		1.0000e+00
			-2.0		3.6718e+01		1.0000e+00
			-1.95		3.6715e+01		1.0000e+00
			-1.9		3.6703e+01		1.0000e+00
			-1.85		3.6691e+01		1.0000e+00
			-1.8		3.6679e+01		1.0000e+00
			-1.75		3.6667e+01		1.0000e+00
			-1.7		3.6662e+01		1.0000e+00
			-1.65		3.6658e+01		1.0000e+00
			-1.6		3.6654e+01		1.0000e+00
			-1.55		3.6650e+01		1.0000e+00
			-1.5		3.6637e+01		1.0000e+00
			-1.45		3.6625e+01		1.0000e+00
			-1.4		3.6613e+01		1.0000e+00
			-1.35		3.6601e+01		1.0000e+00
			-1.3		3.6594e+01		1.0000e+00
			-1.25		3.6588e+01		1.0000e+00
			-1.2		3.6581e+01		1.0000e+00
			-1.15		3.6575e+01		1.0000e+00
			-1.1		3.6570e+01		1.0000e+00
			-1.05		3.6565e+01		1.0000e+00
			-1.0		3.6560e+01		1.0000e+00
			-0.95		3.6555e+01		1.0000e+00
			-0.9		3.6542e+01		1.0000e+00
			-0.85		3.6529e+01		1.0000e+00
			-0.8		3.6516e+01		1.0000e+00
			-0.75		3.6503e+01		1.0000e+00
			-0.7		3.6498e+01		1.0000e+00
			-0.65		3.6493e+01		1.0000e+00
			-0.6		3.6488e+01		1.0000e+00
			-0.55		3.6483e+01		1.0000e+00
			-0.5		3.6471e+01		1.0000e+00
			-0.45		3.6459e+01		1.0000e+00
			-0.4		3.6447e+01		1.0000e+00
			-0.35		3.6434e+01		1.0000e+00
			-0.3		3.6428e+01		1.0000e+00
			-0.25		3.6422e+01		1.0000e+00
			-0.2		3.6416e+01		1.0000e+00
			-0.15		3.6410e+01		1.0000e+00
			-0.1		3.6410e+01		1.0000e+00
			-0.05		3.6411e+01		1.0000e+00
			0.0		3.6412e+01		1.0000e+00
			0.05		3.6412e+01		1.0000e+00
			0.1		3.6419e+01		1.0000e+00
			0.15		3.6426e+01		1.0000e+00
			0.2		3.6433e+01		1.0000e+00
			0.25		3.6440e+01		1.0000e+00
			0.3		3.6453e+01		1.0000e+00
			0.35		3.6466e+01		1.0000e+00
			0.4		3.6480e+01		1.0000e+00
			0.45		3.6493e+01		1.0000e+00
			0.5		3.6499e+01		1.0000e+00
			0.55		3.6504e+01		1.0000e+00
			0.6		3.6510e+01		1.0000e+00
			0.65		3.6516e+01		1.0000e+00
			0.7		3.6530e+01		1.0000e+00
			0.75		3.6544e+01		1.0000e+00
			0.8		3.6557e+01		1.0000e+00
			0.85		3.6571e+01		1.0000e+00
			0.9		3.6577e+01		1.0000e+00
			0.95		3.6582e+01		1.0000e+00
			1.0		3.6588e+01		1.0000e+00
			1.05		3.6593e+01		1.0000e+00
			1.1		3.6600e+01		1.0000e+00
			1.15		3.6607e+01		1.0000e+00
			1.2		3.6613e+01		1.0000e+00
			1.25		3.6620e+01		1.0000e+00
			1.3		3.6633e+01		1.0000e+00
			1.35		3.6646e+01		1.0000e+00
			1.4		3.6658e+01		1.0000e+00
			1.45		3.6671e+01		1.0000e+00
			1.5		3.6677e+01		1.0000e+00
			1.55		3.6684e+01		1.0000e+00
			1.6		3.6690e+01		1.0000e+00
			1.65		3.6696e+01		1.0000e+00
			1.7		3.6709e+01		1.0000e+00
			1.75		3.6723e+01		1.0000e+00
			1.8		3.6736e+01		1.0000e+00
			1.85		3.6749e+01		1.0000e+00
			1.9		3.6755e+01		1.0000e+00
			1.95		3.6761e+01		1.0000e+00
			2.0		3.6766e+01		1.0000e+00
			2.05		3.6772e+01		1.0000e+00
			2.1		3.6777e+01		1.0000e+00
			2.15		3.6782e+01		1.0000e+00
			2.2		3.6786e+01		1.0000e+00
			2.25		3.6791e+01		1.0000e+00
			2.3		3.6801e+01		1.0000e+00
			2.35		3.6811e+01		1.0000e+00
			2.4		3.6822e+01		1.0000e+00
			2.45		3.6832e+01		1.0000e+00
			2.5		3.6837e+01		1.0000e+00
			2.55		3.6842e+01		1.0000e+00
			2.6		3.6847e+01		1.0000e+00
			2.65		3.6852e+01		1.0000e+00
			2.7		3.6858e+01		1.0000e+00
			2.75		3.6863e+01		1.0000e+00
			2.8		3.6869e+01		1.0000e+00
			2.85		3.6874e+01		1.0000e+00
			2.9		3.6891e+01		1.0000e+00
			2.95		3.6909e+01		1.0000e+00
			3.0		3.6926e+01		1.0000e+00
			3.05		3.6943e+01		1.0000e+00
			3.1		3.6963e+01		1.0000e+00
			3.15		3.6984e+01		1.0000e+00
			3.2		3.7004e+01		1.0000e+00
			3.25		3.7024e+01		1.0000e+00
			3.3		3.7077e+01		1.0000e+00
			3.35		3.7129e+01		1.0000e+00
			3.4		3.7182e+01		1.0000e+00
			3.45		3.7234e+01		1.0000e+00
			3.5		3.7412e+01		1.0000e+00
			3.55		3.7590e+01		1.0000e+00
			3.6		3.7768e+01		1.0000e+00
			3.65		3.7946e+01		1.0000e+00
			3.7		3.8867e+01		1.0000e+00
			3.75		3.9787e+01		1.0000e+00
			3.8		4.0707e+01		1.0000e+00
			3.85		4.1628e+01		1.0000e+00
			3.9		4.3123e+01		1.0000e+00
			3.95		4.4618e+01		1.0000e+00
			4.0		4.6114e+01		1.0000e+00
			4.05		4.7609e+01		1.0000e+00
			4.1		4.5684e+01		1.0000e+00
			4.15		4.3759e+01		1.0000e+00
			4.2		4.1834e+01		1.0000e+00
			4.25		3.9909e+01		1.0000e+00
			4.3		3.9321e+01		1.0000e+00
			4.35		3.8734e+01		1.0000e+00
			4.4		3.8146e+01		1.0000e+00
			4.45		3.7558e+01		1.0000e+00
			4.5		3.7447e+01		1.0000e+00
			4.55		3.7337e+01		1.0000e+00
			4.6		3.7226e+01		1.0000e+00
			4.65		3.7115e+01		1.0000e+00
			4.7		3.7088e+01		1.0000e+00
			4.75		3.7061e+01		1.0000e+00
			4.8		3.7033e+01		1.0000e+00
			4.85		3.7006e+01		1.0000e+00
			4.9		3.6992e+01		1.0000e+00
			4.95		3.6977e+01		1.0000e+00
			5.0		3.6962e+01		1.0000e+00
			5.05		3.6948e+01		1.0000e+00
			5.1		3.6944e+01		1.0000e+00
			5.15		3.6940e+01		1.0000e+00
			5.2		3.6936e+01		1.0000e+00
			5.25		3.6933e+01		1.0000e+00
			5.3		3.6924e+01		1.0000e+00
			5.35		3.6916e+01		1.0000e+00
			5.4		3.6908e+01		1.0000e+00
			5.45		3.6900e+01		1.0000e+00
			5.5		3.6898e+01		1.0000e+00
			5.55		3.6896e+01		1.0000e+00
			5.6		3.6894e+01		1.0000e+00
			5.65		3.6892e+01		1.0000e+00
			5.7		3.6883e+01		1.0000e+00
			5.75		3.6874e+01		1.0000e+00
			5.8		3.6866e+01		1.0000e+00
			5.85		3.6857e+01		1.0000e+00
			5.9		3.6854e+01		1.0000e+00
			5.95		3.6851e+01		1.0000e+00
			6.0		3.6848e+01		1.0000e+00
			6.05		3.6846e+01		1.0000e+00
			6.1		3.6837e+01		1.0000e+00
			6.15		3.6829e+01		1.0000e+00
			6.2		3.6820e+01		1.0000e+00
			6.25		3.6811e+01		1.0000e+00
			6.3		3.6802e+01		1.0000e+00
			6.35		3.6793e+01		1.0000e+00
			6.4		3.6784e+01		1.0000e+00
			6.45		3.6775e+01		1.0000e+00
			6.5		3.6768e+01		1.0000e+00
			6.55		3.6761e+01		1.0000e+00
			6.6		3.6753e+01		1.0000e+00
			6.65		3.6746e+01		1.0000e+00
			6.7		3.6742e+01		1.0000e+00
			6.75		3.6738e+01		1.0000e+00
			6.8		3.6734e+01		1.0000e+00
			6.85		3.6730e+01		1.0000e+00
			6.9		3.6719e+01		1.0000e+00
			6.95		3.6708e+01		1.0000e+00
			7.0		3.6696e+01		1.0000e+00
			7.05		3.6685e+01		1.0000e+00
			7.1		3.6682e+01		1.0000e+00
			7.15		3.6680e+01		1.0000e+00
			7.2		3.6677e+01		1.0000e+00
			7.25		3.6674e+01		1.0000e+00
			7.3		3.6660e+01		1.0000e+00
			7.35		3.6646e+01		1.0000e+00
			7.4		3.6632e+01		1.0000e+00
			7.45		3.6618e+01		1.0000e+00
			7.5		3.6610e+01		1.0000e+00
			7.55		3.6602e+01		1.0000e+00
			7.6		3.6595e+01		1.0000e+00
			7.65		3.6587e+01		1.0000e+00
			7.7		3.6575e+01		1.0000e+00
			7.75		3.6564e+01		1.0000e+00
			7.8		3.6552e+01		1.0000e+00
			7.85		3.6541e+01		1.0000e+00
			7.9		3.6530e+01		1.0000e+00
			7.95		3.6519e+01		1.0000e+00
			8.0		3.6508e+01		1.0000e+00
			8.05		3.6498e+01		1.0000e+00
			8.1		3.6481e+01		1.0000e+00
			8.15		3.6465e+01		1.0000e+00
			8.2		3.6449e+01		1.0000e+00
			8.25		3.6433e+01		1.0000e+00
			8.3		3.6420e+01		1.0000e+00
			8.35		3.6407e+01		1.0000e+00
			8.4		3.6394e+01		1.0000e+00
			8.45		3.6382e+01		1.0000e+00
			8.5		3.6363e+01		1.0000e+00
			8.55		3.6345e+01		1.0000e+00
			8.6		3.6326e+01		1.0000e+00
			8.65		3.6308e+01		1.0000e+00
			8.7		3.6284e+01		1.0000e+00
			8.75		3.6261e+01		1.0000e+00
			8.8		3.6237e+01		1.0000e+00
			8.85		3.6213e+01		1.0000e+00
			8.9		3.6183e+01		1.0000e+00
			8.95		3.6154e+01		1.0000e+00
			9.0		3.6124e+01		1.0000e+00
			9.05		3.6094e+01		1.0000e+00
			9.1		3.6044e+01		1.0000e+00
			9.15		3.5995e+01		1.0000e+00
			9.2		3.5945e+01		1.0000e+00
			9.25		3.5895e+01		1.0000e+00
			9.3		3.5813e+01		1.0000e+00
			9.35		3.5732e+01		1.0000e+00
			9.4		3.5650e+01		1.0000e+00
			9.45		3.5568e+01		1.0000e+00
			9.5		3.5405e+01		1.0000e+00
			9.55		3.5241e+01		1.0000e+00
			9.6		3.5077e+01		1.0000e+00
			9.65		3.4913e+01		1.0000e+00
			9.7		3.4477e+01		1.0000e+00
			9.75		3.4041e+01		1.0000e+00
			9.8		3.3605e+01		1.0000e+00
			9.85		3.3169e+01		1.0000e+00
			9.9		3.1652e+01		1.0000e+00
			9.95		3.0135e+01		1.0000e+00
			10.0		2.8617e+01		1.0000e+00
			10.05		2.7100e+01		1.0000e+00
			10.1		2.3427e+01		1.0000e+00
			10.15		1.9753e+01		1.0000e+00
			10.2		1.6080e+01		1.0000e+00
			10.25		1.2407e+01		1.0000e+00
			10.3		1.0687e+01		1.0000e+00
			10.35		8.9667e+00		1.0000e+00
			10.4		7.2463e+00		1.0000e+00
			10.45		5.5261e+00		1.0000e+00
			10.5		5.1856e+00		1.0000e+00
			10.55		4.8450e+00		1.0000e+00
			10.6		4.5045e+00		1.0000e+00
			10.65		4.1639e+00		1.0000e+00
			10.7		4.0916e+00		1.0000e+00
			10.75		4.0193e+00		1.0000e+00
			10.8		3.9470e+00		1.0000e+00
			10.85		3.8747e+00		1.0000e+00
			10.9		3.8023e+00		1.0000e+00
			10.95		3.7300e+00		1.0000e+00
			11.0		3.6576e+00		1.0000e+00
			11.05		3.5853e+00		1.0000e+00
			11.1		3.5134e+00		1.0000e+00
			11.15		3.4416e+00		1.0000e+00
			11.2		3.3697e+00		1.0000e+00
			11.25		3.2978e+00		1.0000e+00
			11.3		3.2256e+00		1.0000e+00
			11.35		3.1533e+00		1.0000e+00
			11.4		3.0811e+00		1.0000e+00
			11.45		3.0088e+00		1.0000e+00
			11.5		2.9751e+00		1.0000e+00
			11.55		2.9414e+00		1.0000e+00
			11.6		2.9077e+00		1.0000e+00
			11.65		2.8741e+00		1.0000e+00
			11.7		2.8406e+00		1.0000e+00
			11.75		2.8071e+00		1.0000e+00
			11.8		2.7736e+00		1.0000e+00
			11.85		2.7401e+00		1.0000e+00
			11.9		2.7064e+00		1.0000e+00
			11.95		2.6726e+00		1.0000e+00
			12.0		2.6389e+00		1.0000e+00
			12.05		2.6051e+00		1.0000e+00
			12.1		2.5715e+00		1.0000e+00
			12.15		2.5379e+00		1.0000e+00
			12.2		2.5042e+00		1.0000e+00
			12.25		2.4706e+00		1.0000e+00
			12.3		2.4453e+00		1.0000e+00
			12.35		2.4200e+00		1.0000e+00
			12.4		2.3946e+00		1.0000e+00
			12.45		2.3693e+00		1.0000e+00
			12.5		2.3434e+00		1.0000e+00
			12.55		2.3175e+00		1.0000e+00
			12.6		2.2915e+00		1.0000e+00
			12.65		2.2656e+00		1.0000e+00
			12.7		2.2399e+00		1.0000e+00
			12.75		2.2142e+00		1.0000e+00
			12.8		2.1885e+00		1.0000e+00
			12.85		2.1628e+00		1.0000e+00
			12.9		2.1374e+00		1.0000e+00
			12.95		2.1121e+00		1.0000e+00
			13.0		2.0867e+00		1.0000e+00
			13.05		2.0613e+00		1.0000e+00
			13.1		2.0385e+00		1.0000e+00
			13.15		2.0156e+00		1.0000e+00
			13.2		1.9927e+00		1.0000e+00
			13.25		1.9698e+00		1.0000e+00
			13.3		1.9470e+00		1.0000e+00
			13.35		1.9242e+00		1.0000e+00
			13.4		1.9014e+00		1.0000e+00
			13.45		1.8786e+00		1.0000e+00
			13.5		1.8560e+00		1.0000e+00
			13.55		1.8334e+00		1.0000e+00
			13.6		1.8108e+00		1.0000e+00
			13.65		1.7883e+00		1.0000e+00
			13.7		1.7655e+00		1.0000e+00
			13.75		1.7426e+00		1.0000e+00
			13.8		1.7198e+00		1.0000e+00
			13.85		1.6970e+00		1.0000e+00
			13.9		1.6774e+00		1.0000e+00
			13.95		1.6578e+00		1.0000e+00
